period_end_date,revenue,cogs,gross_profit,sga,rnd,special_charges,other_opex,total_opex,operating_income,interest_income,interest_expense,net_interest_income_normal,other_nonoperating_income,pretax_income,income_tax,net_income_continuing,net_income_discontinued,income_allocated_to_minority_interest,other_income_statement_items,net_income,preferred_dividends,net_income_available_to_shareholders,eps_basic,eps_diluted,shares_basic,shares_diluted,da_income_statement_supplemental,cash_and_equiv,st_investments,receivables,inventories,other_current_assets,total_current_assets,equity_and_other_investments,ppe_gross,accumulated_depreciation,ppe_net,intangible_assets,goodwill,other_lt_assets,total_assets,accounts_payable,tax_payable,current_accrued_liabilities,st_debt,current_capital_leases,current_deferred_revenue,current_deferred_tax_liability,other_current_liabilities,total_current_liabilities,lt_debt,noncurrent_capital_leases,pension_liabilities,noncurrent_deferred_revenue,other_lt_liabilities,total_liabilities,common_stock,preferred_stock,retained_earnings,aoci,apic,treasury_stock,minority_interest_liability,other_equity,total_equity,total_liabilities_and_equity,total_noncurrent_assets,total_noncurrent_liabilities,cfo_net_income,cfo_da,cfo_receivables,cfo_inventory,cfo_prepaid_expenses,cfo_other_working_capital,cfo_change_in_working_capital,cfo_deferred_tax,cfo_stock_comp,cfo_other_noncash_items,cf_cfo,cfi_ppe_purchases,cfi_ppe_sales,cfi_ppe_net,cfi_acquisitions,cfi_divestitures,cfi_acquisitions_net,cfi_investment_purchases,cfi_investment_sales,cfi_investment_net,cfi_intangibles_net,cfi_other,cf_cfi,cff_common_stock_issued,cff_common_stock_repurchased,cff_common_stock_net,cff_pfd_net,cff_debt_net,cff_dividend_paid,cff_other,cf_cff,cf_forex,cf_net_change_in_cash,capex,cff_pfd_issued,cff_pfd_repurchased,cff_debt_issued,cff_debt_repaid,ebitda,fcf,income_tax_rate,nopat,book_value,tangible_book_value,roa,roe,roic,roic_legacy,roce,rotce,gross_margin,ebitda_margin,operating_margin,pretax_margin,net_income_margin,fcf_margin,assets_to_equity,equity_to_assets,debt_to_equity,debt_to_assets,revenue_per_share,ebitda_per_share,operating_income_per_share,pretax_income_per_share,fcf_per_share,book_value_per_share,tangible_book_per_share,market_cap,enterprise_value,price_to_earnings,price_to_book,price_to_tangible_book,price_to_sales,price_to_fcf,price_to_pretax_income,enterprise_value_to_earnings,enterprise_value_to_book,enterprise_value_to_tangible_book,enterprise_value_to_sales,enterprise_value_to_fcf,enterprise_value_to_pretax_income,revenue_growth,gross_profit_growth,ebitda_growth,operating_income_growth,pretax_income_growth,net_income_growth,eps_diluted_growth,shares_diluted_growth,cash_and_equiv_growth,ppe_growth,total_assets_growth,total_equity_growth,cfo_growth,capex_growth,fcf_growth,dividends_per_share_growth,shares_eop_growth,revenue_cagr_10,eps_diluted_cagr_10,total_assets_cagr_10,total_equity_cagr_10,fcf_cagr_10,dividends_per_share_cagr_10,cf_cfo_cagr_10,current_ratio,payout_ratio,peg_ratio,shares_eop_change,net_debt,shares_eop,dividends,original_filing_date,period_end_price,preliminary,gross_margin_median,pretax_margin_median,operating_income_margin_median,fcf_margin_median,roa_median,roe_median,roic_median,assets_to_equity_median,debt_to_assets_median,debt_to_equity_median,roic_5yr_avg,fiscal_quarter_number,fiscal_quarter_key
2003-03-31,464378000,72417000,391961000,20421000,0,0,133455000,153876000,238085000,0,0,0,-27122000,210963000,-74407000,136556000,0,0,0,129425000,2758000,126667000,0.27,0.27,457708000,464896000,103553000,6833000,0,370384000,18282000,99713000,495212000,0,7020859000,-3538849000,3482010000,0,0,93433000.0,4070655000,222756000,0,35145000,0,0,0,0,73389000,331290000,1044208000,0,0,721315000,150890000,2247703000,201000000,148103000,1846031000,-29423000,1396000,-344402000,0,246999.99999962,1822952000,4070655000,3575443000,1916413000,129425000,103553000,-111034000,646000,0,51404000,-58984000,50441000,0,62127000.0,286562000,-140213000,7320000,-132893000,0,0,0,0,0,0,0,-34708000.0,-167601000,7456000,-21295000,-13839000,0,-100924000,-7241000,28000.000000006,-121976000,0,-3015000,-132893000,0,0,0,-100924000,341638000,153669000,0.3527,144346250,1674849000,1674849000,0.061,0.1378,0.0847,0.0849,0.1208,0.1208,0.844,0.7356,0.5126,0.4542,0.2787,0.3309,2.233,0.4478,0.5728,0.2565,0.9988,0.7348,0.5121,0.4537,0.3305,3.6026,3.6026,4532745240,5570120240,18.8206,2.7063,2.7063,3.1913,77.7512,12.3678,23.1279,3.3257,3.3257,3.9217,95.5456,15.1983,1.4899,2.5469,3.6321,12.4983,6.8829,6.339,5.7068,0.0063,0.2646,0.1142,0.1698,0.1217,1.3596,0.2213,4.1215,0.0,-0.0012,0.0144,0.0138,0.0354,0.0385,0.1398,0.0105,0.0006,1.4947,0.0366,13.6236,-565000.0,1037375000,458316000,0.01,2003-05-05,9.89,0,0.72568884754953,0.23419996674513,0.37265751063127,0.17766558301655,0.066445382821549,0.11584338493581,0.093229709864618,1.7341984646263,0.14042731753735,0.24633447707384,0.18434257971262,1,FY2003.FQ1
2003-06-30,424754000,104670000,320084000,24934000,0,0,118282000,143216000,176868000,0,0,0,-11127000,165741000,-56950000,108791000,0,0,0,108791000,2758000,106033000,0.23,0.22,457528000,464524000,106587000,150967000,0,303804000,18972000,79038000,552781000,0,7269638000,-3674781000,3594857000,0,0,92703000.0,4240341000,226408000,0,29781000,0,0,0,0,66931000,323120000,1010822000,0,0,766531000,158064000,2258537000,201000000,148207000,1946331000,20319000,29000,-334329000,0,247000.00000007,1981804000,4240341000,3687560000,1935417000,108791000,106587000,66614000,-690000,0,-10425000,55499000,29534000,0,66239000.0,366650000,-184833000,2430000,-182403000,0,0,0,0,0,0,0,-6787000.0,-189190000,7274000,0,7274000,0,-33386000,-7239000,24999.999999999,-33326000,0,144134000,-182403000,0,0,0,-33386000,283455000,184247000,0.3436,110542500,1833597000,1833597000,0.0749,0.1637,0.1063,0.1092,0.1428,0.1428,0.7535,0.6673,0.4164,0.3902,0.2561,0.4337,2.1396,0.4673,0.51,0.2383,0.9143,0.6102,0.3807,0.3567,0.3966,3.9472,3.9472,4806422300,5666277300,15.4288,2.6213,2.6213,3.0918,18.0443,10.0831,18.189,3.0902,3.0902,3.6449,21.2724,11.8869,0.4621,0.5418,0.6912,1.5397,1.9833,1.8548,2.04,-0.0132,15.3987,0.1138,0.1812,0.1756,1.4019,-0.0336,8.7343,0.0,0.0025,-0.0171,-0.0371,0.0351,0.0367,0.0049,0.0105,0.0032,1.7107,0.0438,-4.1507,1189000.0,859855000,459505000,0.01,2003-08-07,10.46,0,0.72568884754953,0.23419996674513,0.37265751063127,0.17766558301655,0.066445382821549,0.11584338493581,0.093229709864618,1.7341984646263,0.14042731753735,0.24633447707384,0.18434257971262,2,FY2003.FQ2
2003-09-30,432728000,107236000,325492000,26379000,0,0,105801000,132180000,193312000,0,0,0,-13708000,179604000,-62185000,117419000,0,0,0,117419000,2758000,114661000,0.25,0.24,458464000,465480000,110438000,184489000,0,274834000,20788000,77865000,557976000,0,7495980000,-3792187000,3703793000,0,0,164293000.0,4426062000,252211000,0,38720000,0,0,0,0,62997000,353928000,1010822000,0,0,797010000,163855000,2325615000,201000000,148312000,2055248000,20769000,2801000,-327930000,0,247000.0000003,2100447000,4426062000,3868086000,1971687000,117419000,110438000,28515000,-1816000,0,61675000,88374000,43456000,0,1553000.0,361240000,-239779000,2611000,-237168000,0,0,0,0,0,0,0,-82989000.0,-320157000,2987000,0,2987000,0,0,-8398000,-2150000.0,-7561000,0,33522000,-237168000,0,0,0,0,303750000,124072000,0.3462,120820000,1952135000,1952135000,0.0923,0.1959,0.131,0.1387,0.1698,0.1698,0.7521,0.7019,0.4467,0.415,0.2713,0.2867,2.1072,0.4745,0.4812,0.2283,0.9296,0.6525,0.4152,0.3858,0.2665,4.1938,4.1938,4805156160,5631489160,12.0112,2.4614,2.4614,2.8142,12.2965,7.8333,14.0768,2.8847,2.8847,3.2982,14.4111,9.1804,0.5461,0.624,0.876,2.133,3.1898,3.0647,3.509,-0.006,22.7071,0.1282,0.1985,0.2608,0.9119,-0.253,373.5885,0.3,0.0016,-0.0317,-0.0574,0.0392,0.032,-0.0878,0.0374,-0.0278,1.5765,0.0524,-2.0917,759000.0,826333000,460264000,0.013,2003-11-06,10.44,0,0.72568884754953,0.23419996674513,0.37265751063127,0.17766558301655,0.066445382821549,0.11584338493581,0.093229709864618,1.7341984646263,0.14042731753735,0.24633447707384,0.18434257971262,3,FY2003.FQ3
2003-12-31,436805000,33836000,402969000,28669000,0,0,184162000,212831000,190138000,0,0,0,-92570000,97568000,-23058000,74510000,0,0,0,74510000,2758000,71752000,0.15,0.15,459684000,468896000,121265000,4443000,0,303094000,21922000,66555000,396014000,0,8189062000,-3940145000,4248917000,0,0,104084000.0,4749015000,282379000,0,0,0,0,0,73611000,120529000,476519000,1108872000,0,0,769128000,171115000,2525634000,201000000,148416000,2121214000,50461000,1625000,-299582000,0,246999.99999984,2223381000,4749015000,4353001000,2049115000,74510000,121265000,-12040000,-980000,0,-56154000,-69174000,68295000,0,39828000.0,234724000,-680714000,1192000,-679522000,0,0,0,0,0,0,0,149029000.0,-530493000,17421000,0,17421000,0,98050000,-8416000,-1388000.0,105667000,0,-190102000,-679522000,0,0,98050000,0,311403000,-444798000,0.2363,118836250,2074965000,2074965000,0.0937,0.1989,0.1335,0.1375,0.1913,0.1913,0.9225,0.7129,0.4352,0.2233,0.1705,-1.0182,2.1359,0.4681,0.4987,0.2334,0.9315,0.6641,0.4055,0.208,-0.9486,4.4252,4.4252,5350428680,6454857680,12.4386,2.5785,2.5785,3.0423,311.2523,8.1826,15.0062,3.1108,3.1108,3.6703,375.5007,9.8716,0.1329,0.1939,0.7718,1.703,0.7083,0.6774,0.7,0.0003,-0.5488,0.2791,0.2451,0.3294,0.5792,-2.0909,-5.2457,0.0,0.0073,-0.0064,-0.0596,0.0399,0.0297,0.0,0.0265,-0.0368,0.831,0.0849,-2.0853,3378000.0,1104429000,463642000,0.013,2004-03-11,11.54,0,0.72568884754953,0.23419996674513,0.37265751063127,0.17766558301655,0.066445382821549,0.11584338493581,0.093229709864618,1.7341984646263,0.14042731753735,0.24633447707384,0.18434257971262,4,FY2003.FQ4
2004-03-31,464320000,100440000,363880000,24915000,0,0,149881000,174796000,189084000,0,0,0,-37060000,152024000,-51171000,100853000,0,0,0,100853000,2758000,98095000,0.21,0.21,462578000,470484000,113797000,95717000,0,303566000,23758000,80803000,503844000,0,8384989000,-4048682000,4336307000,0,0,114902000.0,4955053000,296457000,0,51305000,0,0,0,14274000,130988000,493024000,1085822000,0,0,879921000,180729000,2639496000,201000000,148520000,2212300000,32350000,8180000,-287040000,0,246999.99999984,2315557000,4955053000,4451209000,2146472000,100853000,113797000,-9160000,-1849000,0,44878000,33869000,32016000,0,84911000.0,365446000,-240543000,5954000,-234589000,0,0,0,0,0,0,0,-18808000.0,-253397000,8775000,0,8775000,0,-23050000,-8461000,264000.0,-22472000,1697000,91274000,-234589000,0,0,0,-23050000,302881000,130857000,0.3365,118177500,2167037000,2167037000,0.0827,0.1769,0.1192,0.121,0.1715,0.1715,0.7836,0.6523,0.4072,0.3274,0.2172,0.2818,2.1398,0.4673,0.4689,0.2191,0.9868,0.6437,0.4018,0.3231,0.2781,4.6059,4.6059,5334811700,6324916700,13.2847,2.4618,2.4618,3.0335,-948.917,8.967,15.7503,2.9186,2.9186,3.5965,-1125.0296,10.6312,-0.0001,-0.0716,-0.1134,-0.2058,-0.2793,-0.2207,-0.2307,0.012,13.008,0.2453,0.2172,0.2702,0.2752,-0.7652,-0.1484,0.0,0.0031,0.0274,0.0356,0.0387,0.032,0.0,0.0265,0.0461,1.0219,0.0619,3.7307,1468000.0,990105000,465110000,0.013,2004-05-04,11.47,0,0.72568884754953,0.23419996674513,0.37265751063127,0.17766558301655,0.066445382821549,0.11584338493581,0.093229709864618,1.7341984646263,0.14042731753735,0.24633447707384,0.18434257971262,1,FY2004.FQ1
2004-06-30,519021000,104192000,414829000,26370000,0,0,146012000,172382000,242447000,0,0,0,-29702000,212745000,-67808000,144937000,0,0,0,144937000,2758000,142179000,0.3,0.3,465552000,474834000,116224000,67839000,0,355662000,30253000,96670000,550424000,0,8616115000,-4149096000,4467019000,0,0,109523000.0,5126966000,319535000,0,50165000,0,0,0,36260000,100104000,506064000,1085822000,0,0,876406000,180743000,2649035000,201000000,148625000,2347446000,13495000,7478000,-240360000,0,247000.0000003,2477931000,5126966000,4576542000,2142971000,144937000,116224000,-52922000,-6519000,0,-11452000,-70893000,52200000,0,36544000.0,279012000,-323088000,3808000,-319280000,0,0,0,0,0,0,0,-9261999.9999999,-328542000,33519000,0,33519000,0,0,-10496000,-1048000.0,21975000,-323000,-27878000,-319280000,0,0,0,0,358671000,-40268000,0.3187,151529375,2329306000,2329306000,0.0868,0.1826,0.1256,0.1287,0.1794,0.1794,0.7992,0.691,0.4671,0.4098,0.2792,-0.0775,2.069,0.4833,0.4381,0.2117,1.093,0.7553,0.5105,0.448,-0.0848,4.9055,4.9055,7028178060,8046161060,16.0563,3.0172,3.0172,3.7931,-30.5391,10.9483,18.382,3.4543,3.4543,4.3425,-34.9624,12.5341,0.2219,0.296,0.2653,0.3707,0.2835,0.3322,0.3157,0.0221,-0.5506,0.2426,0.209,0.2503,-0.239,-0.7504,-1.2185,0.1538,0.0121,0.0813,0.0,0.0414,0.0419,0.0,0.0413,0.0683,1.0876,0.05,0.0,5632000.0,1017983000,470742000,0.015,2004-08-03,14.93,0,0.72568884754953,0.23419996674513,0.37265751063127,0.17766558301655,0.066445382821549,0.11584338493581,0.093229709864618,1.7341984646263,0.14042731753735,0.24633447707384,0.18434257971262,2,FY2004.FQ2
2004-09-30,594230000,129945000,464285000,29576000,0,0,160209000,189785000,274500000,0,0,0,-12157000,262343000,-90033000,172310000,0,0,0,172310000,2758000,169552000,0.36,0.35,469644000,478708000,130257000,81908000,0,350170000,30739000,94862000,557679000,0,9069633000,-4311597000,4758036000,0,0,108882000.0,5424597000,339303000,0,59168000,0,0,0,66746000,59211000,524428000,1062972000,0,0,915803000,195482000,2698685000,201000000,148729000,2509851000,67639000,15586000,-217140000,0,246999.99999984,2725912000,5424597000,4866918000,2174257000,172310000,130257000,7910000,-343000,0,28978000,36545000,74000000,0,-39696000.0,373416000,-378039000,3009000,-375030000,0,0,0,0,0,0,0,28877000.0,-346153000,17288000,0,17288000,0,-22850000,-8884000,-174000.0,-14620000,1426000,14069000,-375030000,0,0,0,-22850000,404757000,-1614000,0.3431,171562500,2577183000,2577183000,0.0933,0.1893,0.1339,0.1367,0.1882,0.1882,0.7813,0.6811,0.4619,0.4414,0.2899,-0.0027,1.99,0.5025,0.3899,0.1959,1.2413,0.8455,0.5734,0.548,-0.0033,5.3836,5.3836,7793233900,8774297900,15.8202,3.0239,3.0239,3.8688,-21.9019,10.754,17.8118,3.4046,3.4046,4.3558,-24.6591,12.1078,0.3732,0.4264,0.3325,0.4199,0.4606,0.4674,0.4314,0.0284,-0.556,0.2846,0.2256,0.2977,0.0337,-0.5812,-1.013,0.0,0.0057,0.1228,0.0,0.0454,0.053,0.0,0.0413,0.1188,1.0634,0.0422,0.0,2723000.0,981064000,473465000,0.015,2004-10-28,16.46,0,0.72568884754953,0.23419996674513,0.37265751063127,0.17766558301655,0.066445382821549,0.11584338493581,0.093229709864618,1.7341984646263,0.14042731753735,0.24633447707384,0.18434257971262,3,FY2004.FQ3
2004-12-31,689735000,89233000,600502000,34152000,0,0,178297000,212449000,388053000,0,0,0,-89153000,298900000,-92145000,206755000,0,0,0,206755000,2618000,204137000,0.43,0.42,472194000,482488000,144125000,20980000,0,447742000,40037000,78044000,586803000,0,9599276000,-4497673000,5101603000,0,0,110517000.0,5798923000,424581000,0,51116000,0,0,0,103933000,52574000,632204000,1077622000,0,0,902354000,241319000,2853499000,201000000,98826000,2706845000,118154000,21047000,-200695000,0,247000.0000003,2945424000,5798923000,5212120000,2221295000,206755000,144125000,-97627000,-9187000,0,62364000,-44450000,46015000,0,74028000.0,426473000,-475014000,688000,-474326000,0,0,0,0,0,0,0,5510000.0,-468816000,15928000,0,15928000,0,14650000,-9754000,-48945000.0,-28121000,9536000,-60928000,-474326000,0,0,14650000,0,532178000,-47853000,0.3082,242533125,2846598000,2846598000,0.1113,0.2203,0.1599,0.1621,0.2173,0.2173,0.8706,0.7715,0.5626,0.4333,0.2997,-0.0693,1.9687,0.5079,0.3658,0.1858,1.4295,1.1029,0.8042,0.6194,-0.0991,5.8998,5.8998,8486666400,9543308400,13.5818,2.9813,2.9813,3.743,206.3777,9.1647,15.2728,3.3525,3.3525,4.209,232.073,10.3058,0.579,0.4901,0.7089,1.0409,2.0635,1.7748,1.7777,0.0289,3.722,0.2006,0.221,0.3247,0.8169,0.3019,0.8924,0.0,0.0047,0.0903,0.1894,0.0491,0.0573,0.0,0.0413,0.1082,0.9281,0.0352,0.717,2245000.0,1056642000,475710000,0.015,2005-02-25,17.84,0,0.72568884754953,0.23419996674513,0.37265751063127,0.17766558301655,0.066445382821549,0.11584338493581,0.093229709864618,1.7341984646263,0.14042731753735,0.24633447707384,0.18434257971262,4,FY2004.FQ4
2005-03-31,688156000,132273000,555883000,28687000,0,0,194929000,223616000,332267000,0,0,0,-20664000,311603000,-108900000,202703000,0,0,0,202703000,1858000,200845000,0.42,0.41,474586000,484228000,153016000,173385000,0,441157000,48741000,68783000,732066000,0,9934032000,-4646824000,5287208000,0,0,97754000.000001,6117028000,400802000,0,90911000,0,0,0,20293000,50781000,562787000,1119797000,0,0,1028805000,251997000,2963386000,202000000,98885000,2898126000,103625000,31480000,-180969000,0,494999.0,3153642000,6117028000,5384962000,2400599000,202703000,153016000,5518000,-8701000,0,44841000,41658000,44928000,0,39534000.0,481839000,-363760000,19752000,-344008000,0,0,0,0,0,0,0,-33065000.0,-377073000,14264000,0,14264000,0,42175000,-8880000,-48999.999999992,47510000,129000,152405000,-344008000,0,0,42175000,0,485283000,137831000,0.3494,207666875,3054757000,3054757000,0.1219,0.2383,0.1751,0.1793,0.2308,0.2308,0.8077,0.7051,0.4828,0.4528,0.2945,0.2002,1.9396,0.5155,0.355,0.183,1.4211,1.0021,0.6861,0.6435,0.2846,6.3085,6.3085,11653514670,12599926670,16.0361,3.8148,3.8148,4.6779,242.2969,10.7347,17.3384,4.1246,4.1246,5.0578,261.9745,11.6065,0.482,0.5276,0.6022,0.7572,1.0496,1.0098,0.9761,0.0292,0.8114,0.2192,0.2345,0.3619,0.3184,-0.4664,0.0532,0.0,0.0052,0.0941,0.2239,0.0517,0.0659,0.0,0.0413,0.0981,1.3007,0.0361,0.716,2481000.0,946412000,478191000,0.015,2005-04-27,24.37,0,0.72568884754953,0.23419996674513,0.37265751063127,0.17766558301655,0.066445382821549,0.11584338493581,0.093229709864618,1.7341984646263,0.14042731753735,0.24633447707384,0.18434257971262,1,FY2005.FQ1
2005-06-30,783924000,137382000,646542000,30113000,0,0,197509000,227622000,418920000,0,0,0,-32044000,386876000,-137420000,249456000,0,0,0,249456000,1858000,247598000,0.52,0.51,476504000,486828000,159896000,282701000,0,450606000,52188000,81010000,866505000,0,10193805000,-4738768000,5455037000,0,0,106115000.0,6427657000,439532000,0,0,0,0,0,52350000,112890000,604772000,1117097000,0,0,1058229000,248137000,3028235000,202000000,98944000,3136135000,90422000,38391000,-166965000,0,494999.99999989,3399422000,6427657000,5561152000,2423463000,249456000,159896000,-10599000,-3484000,0,-38948000,-53031000,64350000,0,82895000.0,503566000,-398587000,11826000,-386761000,0,0,0,0,0,0,0,-2996000.0,-389757000,10108000,0,10108000,0,-2700000,-11340000,157000.0,-3775000,-718000,109316000,-386761000,0,0,0,-2700000,578816000,116805000,0.3552,261825000,3300478000,3300478000,0.1325,0.2536,0.1891,0.1994,0.2485,0.2485,0.8247,0.7383,0.5343,0.4935,0.3182,0.149,1.8908,0.5288,0.3286,0.1737,1.6102,1.1889,0.8605,0.7946,0.2399,6.7795,6.7795,13626774400,14461170400,16.3936,4.1287,4.1287,4.9443,66.4173,10.8172,17.3974,4.3815,4.3815,5.247,70.4841,11.4796,0.5103,0.5585,0.6137,0.7278,0.8184,0.7211,0.7,0.0252,3.1672,0.2211,0.2536,0.3718,0.8048,-0.2113,3.9006,0.3333,0.0033,0.0735,0.1894,0.0535,0.0735,0.0,0.0717,0.1297,1.4327,0.0392,0.8654,1625000.0,834396000,479816000,0.02,2005-07-29,28.4,0,0.72568884754953,0.23419996674513,0.37265751063127,0.17766558301655,0.066445382821549,0.11584338493581,0.093229709864618,1.7341984646263,0.14042731753735,0.24633447707384,0.18434257971262,2,FY2005.FQ2
2005-09-30,934445000,161455000,772990000,30079000,0,0,220755000,250834000,522156000,0,0,0,-3718000,518438000,-174677000,343761000,0,0,0,343761000,1857000,341904000,0.71,0.7,478688000,489800000,164372000,341061000,0,631320000,54887000,116744000,1144012000,0,10719464000,-4939051000,5780413000,0,0,102128000.0,7026553000,508815000,0,97613000,0,0,0,105377000,61453000,773258000,1042772000,0,0,1087703000,271365000,3175098000,202000000,99003000,3468406000,149503000,72773000,-140725000,0,494999.0,3851455000,7026553000,5882541000,2401840000,343761000,164372000,-166347000,-2551000,0,81004000,-87894000,62737000,0,35831000.0,518807000,-461368000,25412000,-435956000,0,0,0,0,0,0,0,24647000.0,-411309000,32065000,0,32065000,0,-74325000,-11355000,-1570000.0,-55185000,6047000,58360000,-435956000,0,0,0,-74325000,686528000,82851000,0.3369,326347500,3752452000,3752452000,0.149,0.2765,0.213,0.2282,0.2751,0.2751,0.8272,0.7346,0.5587,0.5548,0.3678,0.0886,1.8243,0.5481,0.2707,0.1484,1.9078,1.4016,1.066,1.0584,0.1691,7.6611,7.6611,18091645600,18793356600,18.0433,4.8212,4.8212,5.843,62.4638,11.9352,18.7432,5.0082,5.0082,6.0696,64.8865,12.3981,0.5725,0.6649,0.6961,0.9022,0.9761,0.995,0.9718,0.0231,3.1639,0.2148,0.2953,0.4129,0.3893,-0.1624,52.3327,0.0,0.0068,0.0724,0.0987,0.0561,0.0776,-0.0599,0.0717,0.0611,1.4794,0.0285,1.8274,3272000.0,701711000,483088000,0.02,2005-11-01,37.45,0,0.72568884754953,0.23419996674513,0.37265751063127,0.17766558301655,0.066445382821549,0.11584338493581,0.093229709864618,1.7341984646263,0.14042731753735,0.24633447707384,0.18434257971262,3,FY2005.FQ3
2005-12-30,1200465000,103770000,1096695000,37039000,0,0,214033000,251072000,845623000,0,0,0,-97403000,748220000,-284564000,463656000,0,0,0,463656000,1859000,461797000,0.96,0.94,480630000,490620000,176974000,643811000,0,762462000,63215000,93750000,1563238000,0,11173389000,-5086210000,6087179000,0,0,102903000.0,7753320000,679548000,0,140902000,126075000,0,0,164659000,60857000,1172041000,858992000,0,0,1122588000,283407000,3437028000,202000000,99062000,3920483000,140891000,84705000,-131344000,0,495000.0,4316292000,7753320000,6190082000,2264987000,463656000,176974000,-144129000,-8349000,0,238105000,85627000,98276000,0,40681000.0,865214000,-501048000,13997000,-487051000,0,0,0,0,0,0,0,-12918000.0,-499969000,8231000,0,8231000,0,-57705000,-11411000,24999.999999999,-60860000,-1635000,302750000,-487051000,0,0,0,-57705000,1022597000,378163000,0.3803,528514375,4217230000,4217230000,0.1704,0.3084,0.247,0.2735,0.3269,0.3269,0.9135,0.8518,0.7044,0.6232,0.3862,0.315,1.7962,0.5567,0.2282,0.127,2.4468,2.0842,1.7235,1.525,0.7707,8.5957,8.5957,17763390120,17978571120,14.1026,4.212,4.212,4.9247,24.8213,9.0392,14.2735,4.2631,4.2631,4.9843,25.122,9.1487,0.7404,0.8262,0.9215,1.1791,1.5032,1.2425,1.2117,0.0168,29.6868,0.1931,0.337,0.4654,1.0287,-0.0268,8.9025,0.0,0.0021,0.1094,0.1521,0.0622,0.0809,0.0745,0.0717,0.0896,1.3337,0.0212,0.9267,1060000.0,341256000,484148000,0.02,2006-02-23,36.69,0,0.72568884754953,0.23419996674513,0.37265751063127,0.17766558301655,0.066445382821549,0.11584338493581,0.093229709864618,1.7341984646263,0.14042731753735,0.24633447707384,0.18434257971262,4,FY2005.FQ4
2006-03-31,1084536000,165698000,918838000,36291000,0,0,231346000,267637000,651201000,0,0,0,-21370000,629831000,-203124000,426707000,0,0,0,426707000,1858000,424849000,0.88,0.86,482236000,491846000,177652000,821327000,0,627667000,76638000,139126000,1664758000,0,11742417000,-5269596000,6472821000,0,0,105811000.0,8243390000,673914000,0,169360000,124075000,0,0,36228000,63948000,1067525000,808667000,0,0,1333988000,289850000,3500030000,202000000,99121000,4330772000,175743000,60905000,-125676000,0,494999.99999989,4743360000,8243390000,6578632000,2432505000,426707000,177652000,135150000,-13370000,0,22102000,143882000,106326000,0,-67800000.0,786767000,-589048000,2741000,-586307000,0,0,0,0,0,0,0,28035000.0,-558272000,6129000,0,6129000,0,-52325000,-11432000,7076000.0,-50552000,-427000,177516000,-586307000,0,0,0,-52325000,828853000,200460000,0.3225,407000625,4644239000,4644239000,0.1854,0.3275,0.2702,0.3119,0.348,0.348,0.8472,0.7642,0.6004,0.5807,0.3934,0.1848,1.7378,0.5754,0.1966,0.1131,2.205,1.6851,1.3239,1.2805,0.4075,9.4424,9.4424,17466912000,17454252000,11.7734,3.7609,3.7609,4.363,22.4429,7.6496,11.7649,3.7582,3.7582,4.3598,22.4267,7.644,0.576,0.6529,0.7079,0.9598,1.0212,1.105,1.0843,0.0157,3.737,0.2242,0.3476,0.504,0.6328,-0.7043,0.4543,0.0,0.0021,0.0962,0.133,0.0641,0.0848,0.0491,0.044,0.0809,1.5594,0.0231,0.8847,1044000.0,111415000,485192000,0.02,2006-05-04,36.0,0,0.72568884754953,0.23419996674513,0.37265751063127,0.17766558301655,0.066445382821549,0.11584338493581,0.093229709864618,1.7341984646263,0.14042731753735,0.24633447707384,0.18434257971262,1,FY2006.FQ1
2006-06-30,919088000,163181000,755907000,38607000,0,0,239786000,278393000,477514000,0,0,0,-13220000,464294000,-132877000,331417000,0,0,0,331417000,1858000,329559000,0.68,0.67,483226000,491774000,192928000,759108000,0,597564000,98430000,143608000,1598710000,0,12446522000,-5512505000,6934017000,0,0,109430000.0,8642157000,680575000,0,131150000,124075000,0,0,83672000,63045000,1082517000,768442000,0,0,1346395000,296407000,3493761000,202000000,99181000,4645763000,242827000,91852000,-133722000,0,494999.99999989,5148396000,8642157000,7043447000,2411244000,331417000,192928000,34200000,-21696000,0,-45767000,-33263000,47226000,0,51357000.0,589665000,-600879000,11812000,-589067000,0,0,0,0,0,0,0,-32549000.0,-621616000,5014000,0,5014000,0,-40225000,-16280000,13551000.0,-37940000,7672000,-62219000,-589067000,0,0,0,-40225000,670442000,598000,0.2861,298446250,5049215000,5049215000,0.1854,0.3165,0.2672,0.3088,0.3332,0.3332,0.8224,0.7294,0.5195,0.5051,0.3605,0.0006,1.6786,0.5957,0.1733,0.1032,1.8689,1.3633,0.971,0.9441,0.0012,10.2673,10.2673,16821745320,16831079320,10.745,3.3315,3.3315,4.0646,25.4077,7.1254,10.7509,3.3334,3.3334,4.0669,25.4218,7.1294,0.1724,0.1691,0.1582,0.1398,0.2001,0.3285,0.3137,0.0101,1.6851,0.2711,0.3445,0.5144,0.1709,-0.523,-0.9948,0.5,0.0,0.0772,0.1591,0.0617,0.0875,0.0,0.0872,0.0964,1.4768,0.0447,0.6751,4000.0,133409000,485196000,0.03,2006-08-01,34.67,0,0.72568884754953,0.23419996674513,0.37265751063127,0.17766558301655,0.066445382821549,0.11584338493581,0.093229709864618,1.7341984646263,0.14042731753735,0.24633447707384,0.18434257971262,2,FY2006.FQ2
2006-09-29,968726000,171855000,796871000,42362000,0,0,270137000,312499000,484372000,0,0,0,-18376000,465996000,-166860000,299136000,0,0,0,299136000,1858000,297278000,0.61,0.6,483822000,492272000,216071000,595931000,0,656523000,117385000,213162000,1583001000,0,13188912000,-5734736000,7454176000,0,0,127839000.0,9165016000,794588000,0,143896000,124075000,0,0,122147000,74262000,1258968000,705442000,0,0,1416310000,310063000,3690783000,202000000,99240000,4928453000,241640000,121298000,-118893000,0,494999.99999989,5474233000,9165016000,7582015000,2431815000,299136000,216071000,-58833000,-18955000,0,33897000,-43891000,104913000,0,26887000.0,603116000,-763282000,1102000,-762180000,0,0,0,0,0,0,0,50094000.0,-712086000,18141000,0,18141000,0,-63000000,-16303000,6064000.0,-55098000,891000,-163177000,-762180000,0,0,0,-63000000,700443000,-159064000,0.358,302732500,5374993000,5374993000,0.1708,0.2863,0.2464,0.2767,0.3129,0.3129,0.8225,0.723,0.5,0.481,0.3087,-0.1641,1.6742,0.5972,0.1515,0.0905,1.9678,1.4228,0.9839,0.9466,-0.3231,10.9187,10.9187,15838922060,15948433060,10.414,2.9467,2.9467,3.7957,37.6976,6.8616,10.486,2.9671,2.9671,3.8219,37.9582,6.909,0.0366,0.0308,0.0202,-0.0723,-0.1011,-0.1298,-0.1357,0.005,0.7472,0.2895,0.3043,0.4213,0.1625,-0.7482,-2.9198,0.0,0.0035,0.0763,0.1116,0.0634,0.0898,0.0,0.0872,0.0513,1.2573,0.0495,0.933,1706000.0,233586000,486902000,0.03,2006-11-01,32.53,0,0.72568884754953,0.23419996674513,0.37265751063127,0.17766558301655,0.066445382821549,0.11584338493581,0.093229709864618,1.7341984646263,0.14042731753735,0.24633447707384,0.18434257971262,3,FY2006.FQ3
2006-12-29,603064000,233163000,369901000,47721000,0,0,-67725000,-20004000,389905000,0,0,0,-37385000,352520000,-109895000,242625000,0,0,0,242625000,5421000,237204000,0.49,0.48,484956000,492860000,230438000,218255000,0,848445000,113591000,169789000,1350080000,0,13893851000,-5949804000,7944047000,0,0,108033000.0,9402160000,896572000,0,130984000,0,0,0,144615000,82841000,1255012000,733442000,0,0,1513128000,300907000,3802489000,202000000,52887000,5151034000,176704000,129986000,-113435000,0,495000.0,5599671000,9402160000,8052080000,2547477000,242625000,230438000,-100612000,3651000,0,-14799000,-111760000,127377000,0,110325000.0,599005000,-866021000,4386000,-861635000,0,0,0,0,0,0,0,43236000.0,-818399000,6749000,0,6749000,0,-96075000,-16428000,-49538000.0,-155292000,-2990000,-377676000,-861635000,0,0,0,-96075000,620343000,-262630000,0.3117,243690625,5546784000,5546784000,0.14,0.2347,0.2057,0.2198,0.2476,0.2476,0.6133,1.0286,0.6465,0.5845,0.4023,-0.4354,1.679,0.5955,0.1309,0.078,1.2236,1.2586,0.7911,0.7152,-0.5328,11.2542,11.2542,15223688100,15738875100,11.7115,2.7445,2.7445,4.2578,-68.9991,7.9595,12.1078,2.8374,2.8374,4.4019,-71.3341,8.2288,-0.4976,-0.6627,-0.3933,-0.5389,-0.5288,-0.4767,-0.4893,0.0045,-0.6609,0.305,0.2126,0.2973,-0.3076,-0.769,-1.6944,0.0,0.0011,0.0151,0.0481,0.0625,0.0849,0.0,0.0717,0.0793,1.0757,0.0625,2.4337,568000.0,515187000,487470000,0.03,2007-02-28,31.23,0,0.72568884754953,0.23419996674513,0.37265751063127,0.17766558301655,0.066445382821549,0.11584338493581,0.093229709864618,1.7341984646263,0.14042731753735,0.24633447707384,0.18434257971262,4,FY2006.FQ4
2007-03-30,911038000,219887000,691151000,43879000,0,0,286195000,330074000,361077000,0,0,0,-25756000,335321000,-117654000,217667000,0,0,0,217667000,875000,216792000,0.44,0.44,485526000,493354000,244342000,141700000,0,776433000,122461000,87512000,1128106000,0,14793485000,-6212647000,8580838000,0,0,117910000.0,9826854000,924644000,0,80194000,0,0,0,21071000,72637000,1098546000,820042000,0,0,1747500000,315102000,3981190000,202000000,52919000,5356647000,194628000,140642000,-101667000,0,495000.0,5845664000,9826854000,8698748000,2882644000,217667000,244342000,22935000,-8844000,0,-25275000,-11184000,96999000,0,150656000.0,698480000,-867936000,2939000,-864997000,0,0,0,0,0,0,0,6786000.0000001,-858211000,5276000,0,5276000,0,86600000,-15522000,7144000.0,83498000,-322000,-76555000,-864997000,0,0,86600000,0,605419000,-166517000,0.3508,225673125,5792745000,5792745000,0.1134,0.1906,0.1678,0.1726,0.203,0.203,0.7586,0.6645,0.3963,0.368,0.2389,-0.1827,1.681,0.5948,0.1402,0.0834,1.8466,1.2271,0.7318,0.6796,-0.3375,11.7415,11.7415,17449478640,18127820640,15.9962,3.0122,3.0122,5.1293,-29.6955,10.7837,16.6181,3.1294,3.1294,5.3287,-30.8499,11.2029,-0.1599,-0.2477,-0.2695,-0.4455,-0.4676,-0.4898,-0.4913,0.003,-0.8274,0.3256,0.192,0.2323,-0.1122,-0.4753,-1.8306,0.0,0.0035,0.0436,0.0216,0.0612,0.0792,0.0,0.0717,0.0646,1.0269,0.0681,7.3723,1722000.0,678342000,489192000,0.03,2007-04-30,35.67,0,0.72568884754953,0.23419996674513,0.37265751063127,0.17766558301655,0.066445382821549,0.11584338493581,0.093229709864618,1.7341984646263,0.14042731753735,0.24633447707384,0.18434257971262,1,FY2007.FQ1
2007-06-29,1009152000,217811000,791341000,47183000,0,0,275736000,322919000,468422000,0,0,0,-2553000,465869000,-158816000,307053000,0,0,0,307053000,990000,306063000,0.63,0.62,486454000,494522000,259780000,58534000,0,781578000,116300000,107356000,1063768000,0,15890787000,-6550931000,9339856000,0,0,120640000.0,10524264000,925829000,0,101372000,0,0,0,54895000,76436000,1158532000,883842000,0,0,1861180000,328121000,4231675000,202000000,52951000,5640660000,328918000,162594000,-95029000,0,495000.0,6292589000,10524264000,9460496000,3073143000,307053000,259780000,-2201000,6368000,0,20543000,24710000,126592000,0,5073000.0000001,723208000,-880547000,35049000,-845498000,0,0,0,0,0,0,0,-18488000.0,-863986000,8813000,0,8813000,0,63800000,-22848000,3784000.0,53549000,4063000,-83166000,-845498000,0,0,63800000,0,728202000,-122290000,0.3409,292763750,6239638000,6239638000,0.1048,0.1757,0.154,0.1563,0.1883,0.1883,0.7841,0.7215,0.4641,0.4616,0.3042,-0.1211,1.6724,0.5979,0.1404,0.0839,2.0406,1.4725,0.9472,0.942,-0.2472,12.6175,12.6175,17886110840,18711418840,16.7711,2.8665,2.8665,5.122,-25.1739,11.0428,17.545,2.9987,2.9987,5.3583,-26.3355,11.5523,0.0979,0.0468,0.0861,-0.019,0.0033,-0.0735,-0.0746,0.0055,-0.9228,0.3469,0.2177,0.2222,0.2264,-0.4353,-205.4983,0.5,0.0008,0.0387,0.0384,0.0614,0.0788,0.0,0.1161,0.0542,0.9182,0.0725,4.3578,436000.0,825308000,489628000,0.045,2007-08-02,36.53,0,0.72568884754953,0.23419996674513,0.37265751063127,0.17766558301655,0.066445382821549,0.11584338493581,0.093229709864618,1.7341984646263,0.14042731753735,0.24633447707384,0.18434257971262,2,FY2007.FQ2
2007-09-28,942565000,249190000,693375000,48101000,0,0,278402000,326503000,366872000,0,0,0,-48274000,318598000,-114595000,204003000,0,0,0,204003000,1637000,202366000,0.41,0.41,486972000,494850000,279189000,301944000,0,771331000,109838000,127112000,1310225000,0,16955361000,-6921155000,10034206000,0,0,123276000.0,11467707000,964515000,0,102518000,98442000,0,0,84499000,91579000,1341553000,1185000000,0,0,1960675000,353331000,4840559000,202000000,43035000,5820884000,450500000,186256000,-76022000,0,494999.99999989,6627148000,11467707000,10157482000,3499006000,204003000,279189000,57549000,6708000,0,-31131000,33126000,104414000,0,103528000.0,724260000,-893388000,5984000,-887404000,0,0,0,0,0,0,0,17030000.0,-870374000,18658000,0,18658000,0,399600000,-22883000,-8910000.0000001,386465000,3059000,243410000,-887404000,0,0,399600000,0,646061000,-163144000,0.3596,229295000,6584113000,6584113000,0.0883,0.1503,0.1287,0.1319,0.1619,0.1619,0.7356,0.6854,0.3892,0.338,0.2164,-0.173,1.7304,0.5778,0.1936,0.1119,1.9047,1.3055,0.7413,0.6438,-0.3296,13.3052,13.3052,17795025110,18678081110,18.3199,2.7027,2.7027,5.1344,-24.9027,12.0864,19.229,2.8368,2.8368,5.3892,-26.1385,12.6862,-0.027,-0.1298,-0.0776,-0.2425,-0.3163,-0.318,-0.3223,0.0052,-0.4933,0.3461,0.2512,0.2106,0.2008,-0.1642,-0.0256,0.0,0.0048,0.0319,-0.0012,0.0648,0.077,0.0,0.1161,0.0415,0.9766,0.1097,-151.2291,2355000.0,981498000,491983000,0.045,2007-10-29,36.17,0,0.72568884754953,0.23419996674513,0.37265751063127,0.17766558301655,0.066445382821549,0.11584338493581,0.093229709864618,1.7341984646263,0.14042731753735,0.24633447707384,0.18434257971262,3,FY2007.FQ3
2007-12-31,1231644000,312294000,919350000,66047000,0,0,272829000,338876000,580474000,0,0,0,-69394000,511080000,-149885000,361195000,0,0,0,361195000,3161000,358034000,0.73,0.72,488912000,497446000,282234000,54231000,0,946040000,102322000,189446000,1292039000,0,17563238000,-7133984000,10429254000,0,0,367614000.0,12088907000,1152140000,0,104647000,0,0,0,108980000,108403000,1474170000,1185000000,0,0,2071307000,368336000,5098813000,202000000,4977000,6156721000,466702000,221102000,-61903000,0,495000.0,6990094000,12088907000,10796868000,3624643000,361195000,282234000,-163307000,5406000,0,220775000,62874000,98822000,0,-57708000.0,747417000,-1037191000,39323000,-997868000,0,0,0,0,0,0,0,134665000.0,-863203000,22573000,0,22573000,0,-98442000,-22767000,-31153000.0,-129789000,-2138000,-247713000,-997868000,0,0,0,-98442000,862708000,-250451000,0.2932,362796250,6985117000,6985117000,0.0925,0.16,0.1355,0.1385,0.1705,0.1705,0.7464,0.7004,0.4713,0.4149,0.2932,-0.2033,1.7294,0.5782,0.1695,0.098,2.4759,1.7342,1.1669,1.0274,-0.5034,14.0419,14.0419,22004776870,23135545870,20.1893,3.1502,3.1502,5.3743,-31.3278,13.4926,21.2268,3.3121,3.3121,5.6505,-32.9377,14.186,1.0423,1.4853,0.3906,0.4887,0.4497,0.4886,0.5,0.0093,-0.7515,0.3128,0.2857,0.2483,0.2477,-0.1581,0.0463,0.0,0.0021,0.0462,0.035,0.0652,0.0747,0.0,0.0844,0.0402,0.8764,0.0625,5.7543,1066000.0,1130769000,493049000,0.045,2008-02-28,44.63,0,0.72568884754953,0.23419996674513,0.37265751063127,0.17766558301655,0.066445382821549,0.11584338493581,0.093229709864618,1.7341984646263,0.14042731753735,0.24633447707384,0.18434257971262,4,FY2007.FQ4
2008-03-31,1134018000,283849000,850169000,52926000,0,0,383949000,436875000,413294000,0,-12191000,-12191000,-30991000,370112000,-129156000,240956000,0,0,0,240956000,443000,240513000,0.49,0.48,490860000,499526000,297199000,204938000,0,1143017000,98565000,243726000,1690246000,0,18533202000,-7388651000,11144551000,0,0,115762000.0,12950559000,1208751000,0,105140000,0,0,0,19545000,391482000,1724918000,1185000000,0,0,2387247000,462873000,5760038000,202000000,0,6367524000,388848000,263094000,-31440000,0,494999.0,7190521000,12950559000,11260313000,4035120000,240956000,297199000,-177684000,3285000,0,45469000,-128930000,83390000,19780000,414690000.0,927085000,-1147624000,346891000,-800733000,0,0,0,0,0,0,0,-5985000.0,-806718000,0,-5508000,-5508000,-5395000,0,-22089000,64591000.0,31599000,-1259000,150707000,-800733000,-5395000,0,0,0,710493000,126352000,0.3489,258308750,7190521000,7190521000,0.0889,0.157,0.1345,0.1366,0.1674,0.1674,0.7496,0.6265,0.3644,0.3263,0.2124,0.1114,1.801,0.5552,0.1648,0.0915,2.2701,1.4223,0.8273,0.7409,0.2529,14.3946,14.3946,29770140000,30750202000,26.7426,4.1401,4.1401,6.8954,-72.6928,17.8728,27.623,4.2764,4.2764,7.1224,-75.086,18.4612,0.2447,0.23,0.1735,0.1446,0.1037,0.1069,0.0909,0.0125,0.4462,0.2987,0.3178,0.23,0.3272,0.0742,1.7587,0.0,0.0063,0.0195,-0.037,0.063,0.0644,0.0431,0.0844,0.0597,0.9798,0.0937,-7.2225,3120000.0,980062000,496169000,0.045,2008-05-08,60.0,0,0.72568884754953,0.23419996674513,0.37265751063127,0.17766558301655,0.066445382821549,0.11584338493581,0.093229709864618,1.7341984646263,0.14042731753735,0.24633447707384,0.18434257971262,1,FY2008.FQ1
2008-06-30,1095512000,268269000,827243000,124626000,0,0,410639000,535265000,291978000,0,-9029000,-9029000,-35566000,247383000,-69177000,178206000,0,0,0,178206000,0,178206000,0.36,0.35,493072000,502270000,315294000,108101000,0,1468002000,109971000,402023000,2088097000,0,19706716000,-7717996000,11988720000,0,0,147950000.0,14224767000,1379602000,0,137589000,0,0,0,61048000,866801000,2445040000,1147000000,0,0,2545139000,661417000,6798596000,202000000,0,6515795000,403195000,321026000,-16340000,0,495000.0,7426171000,14224767000,12136670000,4353556000,178206000,315294000,-217842000,-12461000,0,47225000,-183078000,39940000,24780000,760394000.0,1135536000,-1193498000,7522000,-1185976000,0,0,0,0,0,0,0,-13796000.0,-1199772000,0,-1357000,-1357000,0,-38000000,-29558000,39597000.0,-29318000,-3283000,-96837000,-1185976000,0,0,0,-38000000,607272000,-50440000,0.2796,182486250,7426171000,7426171000,0.0724,0.1346,0.1161,0.1183,0.1436,0.1436,0.7551,0.5543,0.2665,0.2258,0.1626,-0.046,1.9154,0.522,0.1544,0.0806,2.1811,1.209,0.5813,0.4925,-0.1004,14.7852,14.7852,32641576000,33680475000,33.1602,4.3954,4.3954,7.4122,-96.6633,22.5554,34.2156,4.5353,4.5353,7.6481,-99.7399,23.2732,0.0855,0.0453,-0.166,-0.3766,-0.4689,-0.4196,-0.4274,0.0156,0.8468,0.2836,0.3516,0.1801,0.5701,-0.4026,0.5875,0.3333,0.0028,-0.0091,-0.0927,0.0625,0.0557,0.0,0.1161,0.0275,0.854,0.169,-3.5738,1416000.0,1038899000,497585000,0.06,2008-07-29,65.6,0,0.72568884754953,0.23419996674513,0.37265751063127,0.17766558301655,0.066445382821549,0.11584338493581,0.093229709864618,1.7341984646263,0.14042731753735,0.24633447707384,0.18434257971262,2,FY2008.FQ2
2008-09-30,3263886000,280270000,2983616000,115273000,0,0,444018000,559291000,2424325000,0,-12095000,-12095000,-18278000,2393952000,-837667000,1556285000,0,0,0,1556285000,0,1556285000,3.15,3.1,494310000,501860000,346247000,885977000,0,1057174000,146571000,386795000,2476517000,0,21117377000,-7985007000,13132370000,0,0,223843000.0,15832730000,1340822000,0,136254000,37000000,0,0,200118000,118886000,1833080000,1860000000,0,0,2707684000,512006000,6912770000,202000000,0,8038477000,314982000,369128000,-5125000,0,497999.99999959,8919960000,15832730000,13356213000,5079690000,1556285000,346247000,175579000,-36178000,0,256738000,396139000,667369000,31780000,-1460755000.0,1537065000,-1511920000,15256000,-1496664000,0,0,0,0,0,0,0,3963999.9999999,-1492700000,0,-4401000,-4401000,0,750000000,-29806000,26458000.0,742251000,-8740000,777876000,-1496664000,0,0,750000000,0,2770572000,40401000,0.3499,1515203125,8919960000,8919960000,0.1554,0.2858,0.241,0.254,0.2874,0.2874,0.9141,0.8488,0.7427,0.7334,0.4768,0.0123,1.7749,0.5633,0.2126,0.1198,6.5035,5.5206,4.8306,4.7701,0.0805,17.7738,17.7738,22327471530,23301494530,9.5553,2.503,2.503,3.32,-166.4515,6.3384,9.9722,2.6122,2.6122,3.4648,-173.7128,6.6149,2.4627,3.303,3.2884,5.608,6.514,6.6287,6.5609,0.0141,1.9342,0.3087,0.3806,0.3459,1.1222,-0.6865,1.2476,0.0,0.0031,0.1164,0.1361,0.0674,0.0651,-0.148,0.1161,0.0692,1.351,0.0193,0.7018,1576000.0,1011023000,499161000,0.06,2008-11-03,44.73,0,0.72568884754953,0.23419996674513,0.37265751063127,0.17766558301655,0.066445382821549,0.11584338493581,0.093229709864618,1.7341984646263,0.14042731753735,0.24633447707384,0.18434257971262,3,FY2008.FQ3
2008-12-31,1633727000,323535000,1310192000,70680000,0,0,409065000,479745000,830447000,0,-18343000,-18343000,-77012000,735092000,-273620000,461472000,0,0,0,461472000,0,461472000,0.93,0.92,495238000,499746000,368135000,331311000,0,749748000,187970000,839422000,2108451000,0,21861517000,-8204215000,13657302000,0,0,185473000.0,15951226000,1122209000,0,86265000,37000000,0,0,368231000,151211000,1764916000,1860000000,0,0,2813522000,498291000,6936729000,202000000,0,8466143000,27787000,323805000,-5736000,0,497999.99999959,9014497000,15951226000,13842775000,5171813000,461472000,368135000,315112000,-46695000,0,-248366000,20051000,342931000,21150000,-180176000.0,1033563000,-1342429000,13890000,-1328539000,0,0,0,0,0,0,0,-138789000.0,-1467328000,0,-6568000,-6568000,0,0,-33751000,-59108000.0,-99427000,-21474000,-554666000,-1328539000,0,0,0,0,1198582000,-294976000,0.3722,519029375,9014497000,9014497000,0.1533,0.2717,0.2243,0.2376,0.2802,0.2802,0.8019,0.7336,0.5083,0.4499,0.2824,-0.1805,1.7695,0.5651,0.2104,0.1189,3.2691,2.3983,1.6617,1.4709,-0.5902,18.0381,18.0381,16624360200,18153049200,6.8218,1.8441,1.8441,2.3325,-93.0487,4.4372,7.4491,2.0137,2.0137,2.547,-101.6049,4.8452,0.3264,0.4251,0.3893,0.4306,0.4383,0.2776,0.2777,0.0046,5.1092,0.3095,0.3194,0.2896,0.3828,-0.3313,-0.1777,0.1333,0.0004,0.0592,0.0322,0.0632,0.0576,0.0,0.0852,0.0577,1.1946,0.0739,2.1174,219000.0,1565689000,499380000,0.068,2009-02-25,33.29,0,0.72568884754953,0.23419996674513,0.37265751063127,0.17766558301655,0.066445382821549,0.11584338493581,0.093229709864618,1.7341984646263,0.14042731753735,0.24633447707384,0.18434257971262,4,FY2008.FQ4
2009-03-31,1158209000,284698000,873511000,89899000,0,0,436729000,526628000,346883000,0,-18376000,-18376000,-63732000,264775000,-106065000,158710000,0,0,0,158710000,0,158710000,0.32,0.31,495982000,500408000,389329000,85214000,0,563318000,242627000,918580000,1809739000,0,22546260000,-8539730000,14006530000,0,0,167440000.0,15983709000,774434000,0,78866000,0,0,0,296468000,133529000,1283297000,2105100000,0,0,2965632000,514143000,6868172000,203000000,0,8588650000,-21694000,349210000,-3132000,0,-496999.0,9115537000,15983709000,14173970000,5584875000,158710000,389329000,156926000,-22896000,0,-350096000,-216066000,83215000,26410000,164241000.0,605839000,-887596000,447000,-887149000,0,0,0,0,0,0,0,-137978000.0,-1025127000,0,-4904000,-4904000,0,208100000,-33491000,5774000.0,175479000,-2288000,-246097000,-887149000,0,0,208100000,0,736212000,-281310000,0.4005,216801875,9115537000,9115537000,0.1474,0.2597,0.2127,0.2168,0.2692,0.2692,0.7541,0.6356,0.2994,0.2286,0.137,-0.2428,1.7534,0.5703,0.2309,0.1317,2.3145,1.4712,0.6932,0.5291,-0.5621,18.2162,18.2162,13705250660,15725136660,5.8204,1.5035,1.5035,1.9164,-23.3748,3.7639,6.6782,1.725,1.725,2.1989,-26.8198,4.3186,0.0213,0.0274,0.0361,-0.1606,-0.2846,-0.3413,-0.3437,0.0017,-0.5841,0.2568,0.2342,0.2677,-0.3465,-0.1079,-3.2263,0.0,0.0023,0.018,-0.0631,0.0571,0.0523,0.0,0.0852,0.0004,1.4102,0.2158,-0.9212,1177000.0,2019886000,500557000,0.068,2009-05-04,27.38,0,0.72568884754953,0.23419996674513,0.37265751063127,0.17766558301655,0.066445382821549,0.11584338493581,0.093229709864618,1.7341984646263,0.14042731753735,0.24633447707384,0.18434257971262,1,FY2009.FQ1
2009-06-30,861039000,282081000,578958000,132810000,0,0,399084000,531894000,47064000,0,-24811000,-24811000,-45809000,-23556000,6850000,-16706000,0,0,0,-16706000,0,-16706000,-0.03,-0.03,496414000,496414000,375592000,706964000,0,589340000,243614000,670358000,2210276000,0,23464653000,-9018974000,14445679000,0,0,136797000.0,16792752000,720053000,0,78470000,37000000,0,0,213413000,140684000,1189620000,2760000000,0,0,3033271000,550339000,7533230000,203000000,0,8535559000,130503000,395128000,-4173000,0,-494999.0,9259522000,16792752000,14582476000,6343610000,-16706000,375592000,-7905000,745000,0,-92925000,-100085000,-21054000,22070000,411562000.0,671379000,-697840000,381000,-697459000,0,0,0,0,0,0,0,-29739000.0,-727198000,0,-1221000,-1221000,0,683159000,-36025000,24044000.0,669957000,7612000,621750000,-697459000,0,0,691900000,-8741000,422656000,-26080000,0.0,29415000,9259522000,9259522000,0.1317,0.235,0.1855,0.1921,0.2405,0.2405,0.6723,0.4908,0.0546,-0.0273,-0.0194,-0.0302,1.8135,0.5513,0.302,0.1665,1.7345,0.8514,0.0948,-0.0474,-0.0525,18.6528,18.6528,17010699840,19063735840,7.8761,1.8371,1.8371,2.4593,-30.27,5.0472,8.8267,2.0588,2.0588,2.7561,-33.9233,5.6564,-0.214,-0.3001,-0.304,-0.8388,-1.0952,-1.0937,-1.0985,-0.0116,5.5398,0.2049,0.1805,0.2468,-0.4087,0.4119,0.4829,0.0735,0.0006,0.0362,0.0,0.0597,0.0515,0.0,0.0929,0.0114,1.8579,-2.0857,0.0,347000.0,2090036000,500904000,0.073,2009-08-06,33.96,0,0.72568884754953,0.23419996674513,0.37265751063127,0.17766558301655,0.066445382821549,0.11584338493581,0.093229709864618,1.7341984646263,0.14042731753735,0.24633447707384,0.18434257971262,2,FY2009.FQ2
2009-09-30,1006849000,274398000,732451000,194591000,0,0,433153000,627744000,104707000,0,-30407000,-30407000,-69743000,4557000,-361000,4196000,0,0,0,4196000,0,4196000,0.01,0.01,499070000,504844000,385330000,608511000,0,631394000,240230000,351554000,1831689000,0,24776867000,-9524312000,15252555000,0,0,137049000.0,17221293000,783764000,0,86334000,37000000,0,0,114304000,179749000,1201151000,2760000000,0,0,3133252000,609150000,7703553000,203000000,0,8502940000,291627000,528544000,-7895000,0,-476000.0,9517740000,17221293000,15389604000,6502402000,4196000,385330000,-29922000,-1441000,0,102522000,71159000,-22368000,26050000,352091000.0,816458000,-923062000,1687000,-921375000,0,0,0,0,0,0,0,22339000.0,-899036000,0,-3763000,-3763000,0,8741000,-36473000,8724000.0,-22771000,6896000,-98453000,-921375000,0,0,0,8741000,490037000,-104917000,0.0792,65441875,9517740000,9517740000,0.0357,0.0647,0.0498,0.0527,0.0838,0.0838,0.7274,0.4867,0.1039,0.0045,0.0041,-0.1042,1.8093,0.5526,0.2938,0.1624,1.9943,0.9706,0.2074,0.009,-0.2078,18.8528,18.8528,21071469600,23222958600,34.6757,2.2139,2.2139,4.5219,-29.7921,21.4824,38.2162,2.4399,2.4399,4.9836,-32.834,23.6759,-0.6915,-0.7545,-0.8231,-0.9568,-0.998,-0.9973,-0.9967,0.0059,-0.3131,0.1614,0.0877,0.067,-0.4688,0.3843,-3.5968,0.0,0.0073,0.01,-0.315,0.0577,0.0499,0.0,0.0929,0.0157,1.5249,7.3,-1.1006,3681000.0,2188489000,504585000,0.073,2009-11-05,41.76,0,0.72568884754953,0.23419996674513,0.37265751063127,0.17766558301655,0.066445382821549,0.11584338493581,0.093229709864618,1.7341984646263,0.14042731753735,0.24633447707384,0.18434257971262,3,FY2009.FQ3
2009-12-31,1760862000,299909000,1460953000,228349000,0,0,454585000,682934000,778019000,0,-27307000,-27307000,-124477000,626235000,-225808000,400427000,0,0,0,400427000,0,400427000,0.8,0.79,500086000,507344000,398937000,685751000,0,808426000,261723000,83641000,1839541000,0,25964443000,-9825218000,16139225000,0,0,139901000.0,18118667000,979139000,0,92858000,37000000,0,0,35414000,201149000,1345560000,2760000000,0,0,3382413000,632652000,8120625000,203000000,0,8866747000,339720000,596702000,-7653000,0,-473999.0,9998042000,18118667000,16279126000,6775065000,400427000,398937000,-166917000,-26554000,0,378560000,185089000,134599000,20650000,-310939000.0,828763000,-994511000,209485000,-785026000,0,0,0,0,0,0,0,21836000.0,-763190000,0,-1098000,-1098000,0,-8895000,-36271000,57761000.0,11497000,170000,77240000,-785026000,0,0,0,-8895000,1176956000,43737000,0.3605,486261875,9998042000,9998042000,0.0309,0.056,0.0435,0.0459,0.0776,0.0776,0.8296,0.6683,0.4418,0.3556,0.2274,0.0248,1.8122,0.5518,0.2797,0.1543,3.4707,2.3198,1.5335,1.2343,0.0862,19.7066,19.7066,24569077050,26643326050,44.9466,2.4573,2.4573,5.1325,-66.6605,28.1751,48.7413,2.6648,2.6648,5.5658,-72.2883,30.5538,0.0778,0.115,-0.018,-0.0631,-0.148,-0.1322,-0.1358,0.0152,1.0698,0.1817,0.1358,0.1091,-0.1981,0.4091,1.1482,0.0,0.0008,0.0572,0.0251,0.0558,0.0473,0.0,0.0495,0.0137,1.3671,0.0918,17.8544,432000.0,2111249000,505017000,0.073,2010-02-25,48.65,0,0.72568884754953,0.23419996674513,0.37265751063127,0.17766558301655,0.066445382821549,0.11584338493581,0.093229709864618,1.7341984646263,0.14042731753735,0.24633447707384,0.18434257971262,4,FY2009.FQ4
2010-03-31,1370693000,344638000,1026055000,229187000,0,0,507371000,736558000,289497000,0,-25428000,-25428000,-66912000,197157000,-79142000,118015000,0,0,0,118015000,0,118015000,0.23,0.23,500740000,507738000,431906000,230084000,0,911272000,313067000,91434000,1545857000,0,27142863000,-10325928000,16816935000,0,0,146276000.0,18509068000,1134286000,0,90182000,37000000,0,0,20652000,210889000,1493009000,2760000000,0,0,3455903000,635239000,8344151000,203000000,0,8945648000,405234000,620367000,-8863000,0,-469000.0,10164917000,18509068000,16963211000,6851142000,118015000,431906000,-95770000,-53312000,0,50202000,-98880000,36695000,22490000,110061000.0,620287000,-1124873000,3766000,-1121107000,0,0,0,0,0,0,0,81429000.0,-1039678000,0,-5347000,-5347000,0,0,-36289000,5547000.0,-36089000,-187000,-455667000,-1121107000,0,0,0,0,721403000,-500820000,0.4014,180935625,10164917000,10164917000,0.0276,0.0501,0.0392,0.0407,0.072,0.072,0.7485,0.5263,0.2112,0.1438,0.086,-0.3653,1.8208,0.5491,0.2751,0.1511,2.6996,1.4208,0.5701,0.3883,-0.9863,20.02,20.02,23513959410,26043875410,46.4765,2.3132,2.3132,4.7033,-39.9842,29.2319,51.477,2.5621,2.5621,5.2093,-44.2862,32.377,0.1834,0.1746,-0.0201,-0.1654,-0.2553,-0.2564,-0.2698,0.0146,1.7,0.2006,0.1579,0.1151,0.0238,-0.2637,-0.7803,0.0,0.0019,0.0381,-0.0561,0.049,0.0437,0.0,0.0495,-0.0153,1.0353,0.3173,-8.2744,986000.0,2566916000,506003000,0.073,2010-05-04,46.47,0,0.72568884754953,0.23419996674513,0.37265751063127,0.17766558301655,0.066445382821549,0.11584338493581,0.093229709864618,1.7341984646263,0.14042731753735,0.24633447707384,0.18434257971262,1,FY2010.FQ1
2010-06-30,1357968000,337748000,1020220000,255950000,0,0,543407000,799357000,220863000,0,-29897000,-29897000,-80907000,110059000,-50187000,59872000,0,0,0,59872000,0,59872000,0.12,0.12,501650000,509006000,465343000,650114000,0,840829000,306563000,118637000,1916143000,0,28137349000,-10713031000,17424318000,0,0,125222000.0,19465683000,1255657000,90051000,0,0,0,0,9889000,202540000,1558137000,3734067000,0,0,3423717000,618743000,9334664000,203000000,0,8966181000,314631000,656529000,-8857000,0,-465000.00000015,10131019000,19465683000,17549540000,7776527000,59872000,465343000,56495000,-14051000,0,163236000,205680000,-12202000,22460000,-60100000.0,681053000,-1279058000,38173000,-1240885000,0,0,0,0,0,0,0,50107000.0,-1190778000,0,-1960000,-1960000,0,0,-38890000,968957000.0,928107000,1648000,420030000,-1240885000,0,0,0,0,686206000,-559832000,0.456,138039375,10131019000,10131019000,0.0306,0.0574,0.0434,0.0449,0.0796,0.0796,0.7512,0.5053,0.1626,0.081,0.044,-0.4122,1.9213,0.5204,0.3685,0.1918,2.6678,1.3481,0.4339,0.2162,-1.0998,19.9035,19.9035,24929000100,28012953100,42.7958,2.4606,2.4606,4.5355,-22.2216,26.5765,48.09,2.765,2.765,5.0966,-24.9707,29.8643,0.5771,0.7621,0.6235,3.6928,5.6722,4.5838,4.4285,0.0253,-0.0804,0.2061,0.1591,0.0941,0.0144,-0.7791,-20.4659,0.0684,0.0015,0.0098,-0.164,0.0487,0.0378,0.0,0.0565,-0.0092,1.2297,0.65,-2.6088,787000.0,3083953000,506790000,0.078,2010-08-05,49.19,0,0.72568884754953,0.23419996674513,0.37265751063127,0.17766558301655,0.066445382821549,0.11584338493581,0.093229709864618,1.7341984646263,0.14042731753735,0.24633447707384,0.18434257971262,2,FY2010.FQ2
2010-09-30,1582075000,352662000,1229413000,313068000,0,0,575132000,888200000,341213000,0,-32890000,-32890000,-347136000,-38813000,-32093000,-70906000,0,0,0,-70906000,0,-70906000,-0.14,-0.14,502030000,502030000,500888000,27832000,0,987089000,381263000,138261000,1534445000,0,29807066000,-11557256000,18249810000,0,0,160604000.0,19944859000,1541268000,0,114763000,0,0,0,45367000,236902000,1938300000,3768638000,0,0,3423942000,695855000,9826735000,203000000,0,8855869000,375847000,695046000,-11178000,0,-460000.0,10118124000,19944859000,18410414000,7888435000,-70906000,500888000,-85538000,-66818000,0,302173000,149817000,28574000,36750000,139264000.0,784387000,-1560024000,84432000,-1475592000,0,0,0,0,0,0,0,80804000.0,-1394788000,0,-2991000,-2991000,0,33700000,-39098000,-1902000.0,-10291000,-1590000,-622282000,-1475592000,0,0,33700000,0,842101000,-691205000,0.0,213258125,10118124000,10118124000,0.0257,0.0501,0.0365,0.0374,0.0907,0.0907,0.777,0.5322,0.2156,-0.0245,-0.0448,-0.4368,1.9712,0.5073,0.3724,0.1889,3.1513,1.6773,0.6796,-0.0773,-1.3768,20.1544,20.1544,23602043200,27342849200,46.5149,2.3326,2.3326,3.8872,-13.8175,26.3816,53.8873,2.7023,2.7023,4.5034,-16.0075,30.563,0.5713,0.6784,0.7184,2.2587,-9.5172,-17.8984,-15.0,-0.0055,-0.9542,0.1965,0.1581,0.063,-0.0392,-0.6015,-5.5881,0.0,0.0017,0.0338,0.0,0.0441,0.0347,0.0,0.0565,-0.0165,0.7916,-0.5571,0.0,890000.0,3740806000,507680000,0.078,2010-11-02,46.49,0,0.72568884754953,0.23419996674513,0.37265751063127,0.17766558301655,0.066445382821549,0.11584338493581,0.093229709864618,1.7341984646263,0.14042731753735,0.24633447707384,0.18434257971262,3,FY2010.FQ3
2010-12-31,1480159000,1672066000,-191907000,366481000,0,0,-687331000,-320850000,128943000,0,-41371000,-41371000,52001000,139573000,-85900000,53673000,0,0,0,53673000,0,53673000,0.1,0.1,502694000,509336000,543789000,788853000,0,1168195000,415792000,154606000,2527446000,0,30996882000,-12315982000,18680900000,0,0,415887000.0,21624233000,1664944000,0,82168000,220000000,0,0,41703000,211284000,2220099000,5003341000,0,0,3501706000,667455000,11392601000,203000000,0,8870179000,440071000,729992000,-11152000,0,-458000.0,10231632000,21624233000,19096787000,9172502000,53673000,543789000,-214313000,-37610000,0,-135816000,-387739000,23178000,25680000,364294000.0,622875000,-1617427000,546222000,-1071205000,0,0,0,0,0,0,0,-206325000.0,-1277530000,0,-997000,-997000,0,1453564000,-38963000,8088000.0,1421692000,-6016000,761021000,-1071205000,0,0,1487264000,-33700000,672732000,-448330000,0.6154,80589375,10231632000,10231632000,0.0077,0.0157,0.0109,0.0112,0.0521,0.0521,-0.1296,0.4544,0.0871,0.0942,0.0362,-0.3028,2.1134,0.4731,0.5105,0.2415,2.906,1.3208,0.2531,0.274,-0.8802,20.0881,20.0881,23227765050,27442253050,144.5825,2.2701,2.2701,4.011,-10.5571,56.9341,170.8158,2.682,2.682,4.7388,-12.4726,67.2643,-0.1594,-1.1313,-0.4284,-0.8342,-0.7771,-0.8659,-0.8679,0.0039,0.1503,0.1574,0.1934,0.0233,-0.2484,-0.3645,-11.2505,0.0,0.0009,0.0305,-0.1146,0.0427,0.0325,0.0,0.0265,-0.0582,1.1384,0.7428,-12.6065,475000.0,4434488000,508155000,0.078,2011-02-24,45.71,0,0.72568884754953,0.23419996674513,0.37265751063127,0.17766558301655,0.066445382821549,0.11584338493581,0.093229709864618,1.7341984646263,0.14042731753735,0.24633447707384,0.18434257971262,4,FY2010.FQ4
2011-03-31,1897106000,405778000,1491328000,455446000,0,0,674103000,1129549000,361779000,0,-50333000,-50333000,-85724000,225722000,-91749000,133973000,0,0,0,133973000,0,133973000,0.26,0.26,510400000,517638000,568226000,1668285000,0,1259095000,481826000,188397000,3597603000,0,32389458000,-12748006000,19641452000,0,0,306467000.0,23545522000,1838959000,0,136897000,220000000,0,0,7944000,296391000,2500191000,5004725000,0,0,3571473000,680754000,11757143000,203000000,0,8963475000,485464000,2148476000,-11721000,0,-315000.0,11788379000,23545522000,19947919000,9256952000,133973000,568226000,-113855000,-67733000,0,235210000,53622000,31290000,27430000,142947000.0,957488000,-1687648000,260107000,-1427541000,0,0,0,0,0,0,0,-206000.00000013,-1427747000,1388211000,-14981000,1373230000,0,0,-39003000,15584000.0,1349811000,-120000,879432000,-1427541000,0,0,0,0,930005000,-470053000,0.4064,226111875,11788379000,11788379000,0.0078,0.016,0.0108,0.0117,0.0514,0.0514,0.7861,0.4902,0.1907,0.1189,0.0706,-0.2477,1.9973,0.5006,0.4432,0.2218,3.6649,1.7966,0.6989,0.436,-0.908,22.7734,22.7734,31813079140,35149519140,180.1297,2.6986,2.6986,5.0358,-14.6643,72.8753,199.0211,2.9817,2.9817,5.564,-16.2022,80.5182,0.384,0.4534,0.2891,0.2496,0.1448,0.1352,0.1304,0.0194,6.2507,0.1679,0.2721,0.1597,0.5436,-0.2733,0.0614,0.0,0.0564,-0.0528,-0.2195,0.0404,0.0282,0.0,0.0265,-0.0462,1.4389,0.3,-8.2055,28684000.0,3556440000,536839000,0.078,2011-05-06,59.26,0,0.72568884754953,0.23419996674513,0.37265751063127,0.17766558301655,0.066445382821549,0.11584338493581,0.093229709864618,1.7341984646263,0.14042731753735,0.24633447707384,0.18434257971262,1,FY2011.FQ1
2011-06-30,2380629000,338052000,2042577000,536843000,0,0,748448000,1285291000,757286000,0,-51253000,-51253000,-162809000,543224000,-247650000,295574000,0,0,0,295574000,0,295574000,0.55,0.55,531660000,538664000,602944000,1577438000,0,1307434000,540094000,212984000,3637950000,0,33460357000,-13463534000,19996823000,0,0,324606000.0,23959379000,1870172000,148645000,0,220000000,0,0,50180000,187241000,2476238000,5006251000,0,0,3681009000,718696000,11882194000,203000000,0,9213356000,492880000,2181157000,-12895000,0,-313000.0000001,12077185000,23959379000,20321429000,9405956000,295574000,602944000,-51445000,-59329000,0,108178000,-2596000,174840000,26000000,14990000.0,1111752000,-1775059000,0,-1775059000,0,0,0,0,0,0,0,607728000.0,-1167331000,59000,-1755000,-1696000,0,0,-42559000,9247000.0,-35008000,-260000,-90847000,-1775059000,0,0,0,0,1360230000,-663307000,0.4558,473303750,12077185000,12077185000,0.0173,0.0345,0.024,0.0265,0.0739,0.0739,0.8579,0.5713,0.3181,0.2281,0.1241,-0.2786,1.9838,0.504,0.4327,0.2181,4.4195,2.5251,1.4058,1.0084,-1.2313,22.4206,22.4206,28080163080,31508976080,68.1038,2.325,2.325,3.8256,-12.3543,32.2869,76.4198,2.6089,2.6089,4.2927,-13.8629,36.2294,0.753,1.002,0.9822,2.4287,3.9357,3.9367,3.5833,0.0582,1.4264,0.1476,0.2308,0.192,0.6324,-0.4304,-0.1848,0.0256,0.0005,0.0383,-0.0501,0.0415,0.0296,0.0,0.0163,0.0073,1.4691,0.1454,-13.5814,271999.99999994,3648813000,537111000,0.08,2011-08-04,52.28,0,0.72568884754953,0.23419996674513,0.37265751063127,0.17766558301655,0.066445382821549,0.11584338493581,0.093229709864618,1.7341984646263,0.14042731753735,0.24633447707384,0.18434257971262,2,FY2011.FQ2
2011-09-30,2528080000,398740000,2129340000,654864000,0,0,798679000,1453543000,675797000,0,-52186000,-52186000,275610000,899221000,-358343000,540878000,0,0,0,540878000,0,540878000,1.01,1.0,532106000,538584000,651684000,1386728000,0,1277662000,580355000,490617000,3735362000,0,34190103000,-13453905000,20736198000,0,0,323118000.0,24794678000,1926455000,157297000,0,220000000,0,0,139646000,222925000,2666323000,5007746000,0,0,3858243000,768518000,12300830000,203000000,0,9711207000,372448000,2230600000,-23098000,0,-309000.0,12493848000,24794678000,21059316000,9634507000,540878000,651684000,36335000,-40549000,0,144885000,140671000,293149000,41630000,-395729000.0,1272283000,-1704940000,0,-1704940000,0,0,0,0,0,0,0,293486000.0,-1411454000,0,-4621000,-4621000,0,0,-42571000,2341000.0,-44851000,-6688000,-190710000,-1704940000,0,0,0,0,1327481000,-432657000,0.3985,422373125,12493848000,12493848000,0.042,0.0833,0.0584,0.0638,0.0873,0.0873,0.8422,0.525,0.2673,0.3556,0.2139,-0.1711,1.9845,0.5038,0.4184,0.2108,4.6939,2.4647,1.2547,1.6696,-0.8033,23.1975,23.1975,19093229860,22714247860,18.6439,1.5282,1.5282,2.3042,-9.4786,10.5619,22.1797,1.818,1.818,2.7412,-11.2762,12.5649,0.5979,0.7319,0.5763,0.9805,24.168,8.628,8.1785,0.0728,48.8249,0.1362,0.2431,0.2347,0.622,-0.1554,0.374,0.0,0.001,0.0811,0.123,0.0448,0.032,0.0,0.0163,0.077,1.4009,0.0796,1.5155,575000.0,3841018000,537686000,0.08,2011-11-01,35.51,0,0.72568884754953,0.23419996674513,0.37265751063127,0.17766558301655,0.066445382821549,0.11584338493581,0.093229709864618,1.7341984646263,0.14042731753735,0.24633447707384,0.18434257971262,3,FY2011.FQ3
2011-12-30,2101419000,2447401000,-345982000,729795000,0,0,-1239553000,-509758000,163776000,0,-56591000,-56591000,134447000,241632000,-120934000,120698000,0,0,0,120698000,0,120698000,0.22,0.22,531896000,538674000,693527000,615726000,0,1477836000,590594000,569782000,3253938000,0,35814424000,-14525600000,21288824000,0,0,296035000.0,24838797000,2033615000,147105000,0,0,0,0,135989000,205610000,2522319000,5009166000,0,0,3867219000,799189000,12197893000,203000000,0,9789345000,401746000,2272052000,-24932000,0,-306999.0,12640904000,24838797000,21584859000,9675574000,120698000,693527000,-210815000,-9012000,0,183792000,-36035000,21000,33290000,425386000.0,1236887000,-1783165000,0,-1783165000,0,0,0,0,0,0,0,34755000.0,-1748410000,-5000,-2565000,-2570000,0,-220000000,-43036000,4193000.0,-261413000,1934000,-771002000,-1783165000,0,0,0,-220000000,857303000,-546278000,0.5004,102360000,12640904000,12640904000,0.0439,0.0868,0.0616,0.0653,0.0877,0.0877,-0.1646,0.4079,0.0779,0.1149,0.0574,-0.2599,1.9649,0.5089,0.3962,0.2016,3.901,1.5915,0.304,0.4485,-1.0141,23.4667,23.4667,26503801140,30897241140,24.2903,2.0966,2.0966,2.9755,-12.5473,13.8777,28.3169,2.4442,2.4442,3.4687,-14.6273,16.1782,0.4197,-0.8028,0.2743,0.2701,0.7312,1.2487,1.0952,0.0576,-0.2194,0.1396,0.1486,0.2354,0.9857,-0.6646,-0.2184,0.0,0.0006,0.0933,0.0,0.0399,0.0316,0.0,0.0091,0.063,1.29,0.3636,0.0,353000.0,4393440000,538039000,0.08,2012-02-24,49.26,0,0.72568884754953,0.23419996674513,0.37265751063127,0.17766558301655,0.066445382821549,0.11584338493581,0.093229709864618,1.7341984646263,0.14042731753735,0.24633447707384,0.18434257971262,4,FY2011.FQ4
2012-03-30,2594086000,1035830000,1558256000,781737000,0,0,285276000,1067013000,491243000,0,-50269000,-50269000,79160000,520134000,-196125000,324009000,0,0,0,324009000,0,324009000,0.61,0.6,533348000,540484000,748743000,294064000,0,1568084000,561512000,618373000,3042033000,0,37369381000,-15235540000,22133841000,0,0,379662000.0,25555536000,2289903000,123391000,0,0,0,0,122833000,236220000,2772347000,5010523000,0,0,3990407000,790416000,12563693000,203000000,0,10067541000,429451000,2328435000,-36284000,0,-299999.0,12991843000,25555536000,22513503000,9791346000,324009000,748743000,-89948000,10208000,0,-106112000,-185852000,110148000,28340000,52217000.0,1077605000,-2049517000,0,-2049517000,0,0,0,0,0,0,0,674197000.0,-1375320000,0,-20072000,-20072000,0,0,-43250000,36437000.0,-26885000,2938000,-321662000,-2049517000,0,0,0,0,1239986000,-971912000,0.377,307026875,12991843000,12991843000,0.0508,0.0999,0.0718,0.0737,0.0925,0.0925,0.6006,0.478,0.1893,0.2005,0.1249,-0.3746,1.967,0.5083,0.3856,0.196,4.7995,2.2942,0.9088,0.9623,-1.7982,24.0374,24.0374,29950393550,34666852550,23.3775,2.3053,2.3053,3.1184,-11.457,13.5878,27.0589,2.6683,2.6683,3.6095,-13.2612,15.7275,0.3673,0.0448,0.3333,0.3578,1.3043,1.4184,1.3076,0.0441,-0.8237,0.1268,0.0853,0.102,0.1254,-0.4356,-1.0676,0.0,0.002,0.0992,0.5059,0.0402,0.0316,0.0,0.0091,0.0281,1.0972,0.1333,0.462,1122000.0,4716459000,539161000,0.08,2012-05-08,55.55,0,0.72568884754953,0.23419996674513,0.37265751063127,0.17766558301655,0.066445382821549,0.11584338493581,0.093229709864618,1.7341984646263,0.14042731753735,0.24633447707384,0.18434257971262,1,FY2012.FQ1
2012-06-29,2596442000,1080109000,1516333000,769845000,0,0,301671000,1071516000,444817000,0,-50775000,-50775000,252197000,646239000,-250461000,395778000,0,0,0,395778000,0,395778000,0.74,0.73,533748000,539970000,808765000,280374000,0,1403540000,620260000,643884000,2948058000,0,37938308000,-15248594000,22689714000,0,0,360805000.0,25998577000,2235637000,142223000,0,0,0,0,121059000,181021000,2679940000,5011893000,0,0,4160306000,791297000,12643436000,203000000,0,10417405000,400086000,2374122000,-39174000,0,-297999.0,13355141000,25998577000,23050519000,9963496000,395778000,808765000,205367000,-113784000,0,69719000,161302000,168678000,27130000,-66040000.0,1495613000,-2014303000,0,-2014303000,0,0,0,0,0,0,0,535066000.0,-1479237000,0,-2591000,-2591000,0,0,-45642000,18371000.0,-29862000,-204000,-13690000,-2014303000,0,0,0,0,1253582000,-518690000,0.3875,278010625,13355141000,13355141000,0.0535,0.1048,0.0759,0.0771,0.077,0.077,0.584,0.4828,0.1713,0.2488,0.1524,-0.1997,1.9467,0.5136,0.3752,0.1927,4.8084,2.3215,0.8237,1.1968,-0.9605,24.7331,24.7331,24315006840,29046525840,17.6021,1.8206,1.8206,2.476,-9.8459,10.5386,21.0274,2.1749,2.1749,2.9578,-11.7619,12.5893,0.0906,-0.2576,-0.0784,-0.4126,0.1896,0.339,0.3363,0.0024,-0.8222,0.1346,0.0851,0.1058,0.3452,-0.1347,0.218,0.0625,0.0008,0.0395,-0.0078,0.0367,0.0293,0.0,0.0153,0.0608,1.1,0.1156,-22.5194,453000.0,4731519000,539614000,0.085,2012-08-02,45.06,0,0.72568884754953,0.23419996674513,0.37265751063127,0.17766558301655,0.066445382821549,0.11584338493581,0.093229709864618,1.7341984646263,0.14042731753735,0.24633447707384,0.18434257971262,2,FY2012.FQ2
2012-09-28,2873632000,1105526000,1768106000,848327000,0,0,323204000,1171531000,596575000,0,-53154000,-53154000,16768000,560189000,-204698000,355491000,0,0,0,355491000,0,355491000,0.66,0.65,535882000,541964000,825851000,1112623000,0,1633890000,657880000,595769000,4000162000,0,39630683000,-15944233000,23686450000,0,0,345879000.0,28032491000,2151093000,168691000,0,0,0,0,2793000,255806000,2578383000,6305277000,0,0,4513188000,842173000,14239021000,203000000,0,10726811000,451399000,2459531000,-46984000,0,-286999.0,13793470000,28032491000,24032329000,11660638000,355491000,825851000,-227593000,-51190000,0,170360000,-108423000,107052000,45870000,210531000.0,1436372000,-1740415000,0,-1740415000,0,0,0,0,0,0,0,-83367000.0,-1823782000,0,-22136000,-22136000,0,1232731000,-45520000,52507000.0,1217582000,2077000,832249000,-1740415000,0,0,1234138000,-1407000,1422426000,-304043000,0.3654,372859375,13793470000,13793470000,0.0442,0.0881,0.0621,0.0645,0.0695,0.0695,0.6152,0.4949,0.2076,0.1949,0.1237,-0.1058,2.0323,0.492,0.4571,0.2249,5.3022,2.6245,1.1007,1.0336,-0.561,25.4508,25.4508,30351451000,35544105000,25.3779,2.2004,2.2004,2.9857,-12.9655,15.4209,29.7197,2.5768,2.5768,3.4965,-15.1837,18.0592,0.1366,-0.1696,0.0715,-0.1172,-0.377,-0.3427,-0.3482,0.0062,-0.1976,0.1422,0.1305,0.104,0.1289,-0.0208,0.2972,0.0,0.0038,0.0768,0.1103,0.0423,0.0309,0.0,0.0153,0.0875,1.5514,0.1297,2.3002,2086000.0,5192654000,541700000,0.085,2012-11-05,56.03,0,0.72568884754953,0.23419996674513,0.37265751063127,0.17766558301655,0.066445382821549,0.11584338493581,0.093229709864618,1.7341984646263,0.14042731753735,0.24633447707384,0.18434257971262,3,FY2012.FQ3
2012-12-31,2990910000,1046235000,1944675000,967130000,0,0,346052000,1313182000,631493000,0,-59354000,-59354000,-1017961000,-445822000,-59177000,-504999000,0,0,0,-504999000,0,-504999000,-0.94,-0.94,537804000,544128000,786344000,876435000,0,1685781000,683187000,344481000,3589884000,0,40866917000,-17529236000,23337681000,0,0,409013000.0,27336578000,2078948000,162083000,0,406579000,0,0,22838000,253610000,2924058000,5905602000,0,0,4327396000,894758000,14051814000,203000000,0,10175631000,439895000,2500340000,-33822000,0,-280000.0,13284764000,27336578000,23746694000,11127756000,-504999000,786344000,-66509000,-1996000,0,-81271000,-149776000,-92940000,26440000,1162118000.0,1227187000,-1550881000,0,-1550881000,0,0,0,0,0,0,0,109957000.0,-1440924000,0,-13793000,-13793000,0,-1417000,-46668000,40794000.0,-21084000,-1367000,-236188000,-1550881000,0,0,0,-1417000,1417837000,-323694000,0.0,394683125,13284764000,13284764000,0.0205,0.0421,0.0287,0.0302,0.086,0.086,0.6501,0.474,0.2111,-0.149,-0.1688,-0.1082,2.0577,0.4859,0.4751,0.2309,5.4967,2.6057,1.1605,-0.8193,-0.5948,24.4147,24.4147,32813145600,37842312600,57.5387,2.4699,2.4699,2.9681,-15.49,25.6204,66.3575,2.8485,2.8485,3.423,-17.8641,29.5472,0.4232,6.6207,0.6538,2.8558,-2.845,-5.1839,-5.2727,0.0101,0.4234,0.0962,0.1005,0.0509,-0.0078,0.1302,0.4074,0.0,0.0028,0.0821,0.0,0.0345,0.0274,0.0,0.0086,0.0606,1.2277,-0.0904,0.0,1564000.0,5435746000,543264000,0.085,2013-02-22,60.4,0,0.72568884754953,0.23419996674513,0.37265751063127,0.17766558301655,0.066445382821549,0.11584338493581,0.093229709864618,1.7341984646263,0.14042731753735,0.24633447707384,0.18434257971262,4,FY2012.FQ4
2013-03-29,3285198000,1119892000,2165306000,982634000,0,0,355327000,1337961000,827345000,0,-61921000,-61921000,-4405000,761019000,-266294000,494725000,0,0,0,494725000,0,494725000,0.92,0.91,538717000,544526000,846388000,1108034000,0,1915637000,697478000,359869000,4081018000,0,41844641000,-17906671000,23937970000,0,0,213625000.0,28232613000,2258232000,155140000,0,406579000,0,0,2164000,252576000,3074691000,5905917000,0,0,4631685000,864011000,14476304000,203000000,0,10619426000,427832000,2539578000,-33251000,0,-275999.99999984,13756309000,28232613000,24151595000,11401613000,494725000,846388000,-236757000,-15058000,0,37522000,-214293000,200779000,30440000,66896000.0,1424935000,-1696324000,0,-1696324000,0,0,0,0,0,0,0,536585000.0,-1159739000,0,-11024000,-11024000,0,-1427000,-46220000,19949000.0,-38722000,5125000,231599000,-1696324000,0,0,0,-1427000,1673733000,-271389000,0.3499,517090625,13756309000,13756309000,0.0266,0.0548,0.0373,0.0393,0.0992,0.0992,0.6591,0.5094,0.2518,0.2316,0.1505,-0.0826,2.0523,0.4872,0.4588,0.2235,6.0331,3.0737,1.5193,1.3975,-0.4983,25.2629,25.2629,34845252680,39643135680,47.0249,2.533,2.533,2.9665,-24.5767,22.9,53.4998,2.8818,2.8818,3.3749,-27.9607,26.0531,0.2664,0.3895,0.3497,0.6841,0.4631,0.5268,0.5166,0.0074,2.768,0.0815,0.1047,0.0588,0.3223,0.1723,0.7207,0.0,0.0015,0.0758,0.0,0.0353,0.0311,0.0,0.0086,0.0615,1.3272,0.0934,0.0,853000.0,5204462000,544117000,0.085,2013-05-06,64.04,0,0.72568884754953,0.23419996674513,0.37265751063127,0.17766558301655,0.066445382821549,0.11584338493581,0.093229709864618,1.7341984646263,0.14042731753735,0.24633447707384,0.18434257971262,1,FY2013.FQ1
2013-06-28,3613471000,1205316000,2408155000,1046097000,0,0,436690000,1482787000,925368000,0,-61647000,-61647000,171509000,1035230000,-375538000,659692000,0,0,0,659692000,0,659692000,1.22,1.21,540033000,545477000,910531000,1228016000,0,1832404000,657400000,523020000,4240840000,0,43109551000,-18529163000,24580388000,0,0,255924000.0,29077152000,2201940000,161608000,0,406579000,0,0,4310000,245866000,3020303000,5906210000,0,0,4970705000,795308000,14692526000,203000000,0,11228011000,408257000,2576441000,-30809000,0,-273999.0,14384626000,29077152000,24836312000,11672223000,659692000,910531000,71948000,37143000,0,-34681000,74410000,287853000,27290000,-68999000.0,1890777000,-1737283000,0,-1737283000,0,0,0,0,0,0,0,10392000.0,-1726891000,0,-10070000,-10070000,0,-1439000,-50786000,22974000.0,-39321000,-4583000,119982000,-1737283000,0,0,0,-1439000,1835899000,153494000,0.3627,578355000,14384626000,14384626000,0.035,0.0714,0.0493,0.0522,0.1145,0.1145,0.6664,0.508,0.256,0.2864,0.1825,0.0424,2.0214,0.4947,0.4388,0.2171,6.6244,3.3656,1.6964,1.8978,0.2813,26.3707,26.3707,35861006960,40539200960,35.6858,2.493,2.493,2.8097,-48.0947,18.7693,40.3411,2.8182,2.8182,3.1762,-54.3689,21.2178,0.3917,0.5881,0.4645,1.0803,0.6019,0.6668,0.6462,0.0101,3.3799,0.0833,0.1184,0.077,0.2642,0.1375,1.2959,0.1058,0.001,0.0933,0.2769,0.03,0.0346,0.0,0.0188,0.1174,1.4041,0.0776,1.2887,552000.0,5084773000,544669000,0.094,2013-08-06,65.84,0,0.72568884754953,0.23419996674513,0.37265751063127,0.17766558301655,0.066445382821549,0.11584338493581,0.093229709864618,1.7341984646263,0.14042731753735,0.24633447707384,0.18434257971262,2,FY2013.FQ2
2013-09-30,3814754000,1259090000,2555664000,975415000,0,0,439359000,1414774000,1140890000,0,-59382000,-59382000,-359953000,721555000,-259057000,462498000,0,0,0,462498000,0,462498000,0.85,0.85,540941000,547152000,928800000,1318817000,0,1891813000,566004000,415333000,4191967000,0,44841986000,-19242795000,25599191000,0,0,356112000.0,30147270000,2247714000,200477000,0,406579000,0,0,0,492563000,3347333000,5906494000,0,0,5185083000,846780000,15285690000,203000000,0,11639302000,425283000,2614898000,-20634000,0,-269000.00000023,14861580000,30147270000,25955303000,11938357000,462498000,928800000,-48937000,39062000,0,74700000,64825000,169054000,45450000,341845000.0,2012472000,-1921864000,0,-1921864000,0,0,0,0,0,0,0,45151000.0,-1876713000,0,-34468000,-34468000,0,-1452000,-50725000,37416000.0,-49229000,4271000,90801000,-1921864000,0,0,0,-1452000,2069690000,90608000,0.359,713056250,14861580000,14861580000,0.0375,0.076,0.0531,0.0565,0.1313,0.1313,0.6699,0.5425,0.299,0.1891,0.1212,0.0237,2.0285,0.4929,0.4247,0.2094,6.972,3.7826,2.0851,1.3187,0.1655,27.1617,27.1617,46199812960,50787489960,41.5497,3.1086,3.1086,3.3711,-131.6305,22.2974,45.6756,3.4173,3.4173,3.7059,-144.7015,24.5115,0.3275,0.4454,0.455,0.9123,0.288,0.301,0.2977,0.0095,0.1853,0.0807,0.0754,0.0774,0.401,-0.1042,1.298,0.0,0.0021,0.0723,0.1257,0.025,0.0234,0.0,0.0188,0.0771,1.2523,0.1105,3.3039,1170000.0,4994256000,545839000,0.094,2013-11-06,84.64,0,0.72568884754953,0.23419996674513,0.37265751063127,0.17766558301655,0.066445382821549,0.11584338493581,0.093229709864618,1.7341984646263,0.14042731753735,0.24633447707384,0.18434257971262,3,FY2013.FQ3
2013-12-31,3685972000,1230527000,2455445000,993006000,0,0,425106000,1418112000,1037333000,0,-52510000,-52510000,-65741000,919082000,-338888000,580194000,0,0,0,580194000,0,580194000,1.07,1.06,541757000,547772000,915257000,1318209000,0,1663650000,563268000,526888000,4072015000,0,45788888000,-19640052000,26148836000,0,0,353387000.0,30574238000,2254418000,159365000,0,6579000,0,0,0,441354000,2861716000,5906642000,0,0,5522354000,865067000,15155779000,203000000,0,12168277000,415834000,2646879000,-15263000,0,-268000.00000003,15418459000,30574238000,26502223000,12294063000,580194000,915257000,190133000,-7745000,0,-5008000,177380000,217079000,30880000,80440000.0,2001230000,-1705156000,0,-1705156000,0,0,0,0,0,0,0,153721000.0,-1551435000,0,-8222000,-8222000,0,-401462000,-51447000,14477000.0,-446654000,-3749000,-608000,-1705156000,0,0,0,-401462000,1952590000,296074000,0.3687,648333125,15418459000,15418459000,0.0723,0.1451,0.1033,0.1102,0.1431,0.1431,0.6661,0.5297,0.2814,0.2493,0.1574,0.0803,1.9829,0.5042,0.3835,0.1934,6.729,3.5646,1.8937,1.6778,0.5405,28.1475,28.1475,45834754240,50423187240,20.8613,2.9727,2.9727,3.1831,170.5244,13.3361,22.9497,3.2703,3.2703,3.5017,187.5953,14.6711,0.2323,0.2626,0.3771,0.6426,3.0615,2.1489,2.1276,0.0066,0.504,0.1204,0.1184,0.1606,0.6307,-0.0994,1.9146,0.0,0.0006,0.0446,0.0678,0.0246,0.0247,0.0,0.0162,0.0605,1.4229,0.0886,3.0764,333000.0,4595012000,546172000,0.094,2014-02-24,83.92,0,0.72568884754953,0.23419996674513,0.37265751063127,0.17766558301655,0.066445382821549,0.11584338493581,0.093229709864618,1.7341984646263,0.14042731753735,0.24633447707384,0.18434257971262,4,FY2013.FQ4
2014-03-31,4215441000,1301249000,2914192000,1089166000,0,0,483148000,1572314000,1341878000,0,-50152000,-50152000,-260937000,1030789000,-369861000,660928000,0,0,0,660928000,0,660928000,1.22,1.21,542278000,548071000,946491000,1667212000,0,1801856000,635419000,717989000,4822476000,0,47452408000,-20453971000,26998437000,0,0,320375000.0,32141288000,2647209000,270908000,0,6579000,0,0,0,470946000,3395642000,5902952000,0,0,5886794000,922586000,16107974000,205000000,0,12760895000,402803000,2697807000,-33662000,0,470999.99999955,16033314000,32141288000,27318812000,12712332000,660928000,946491000,-144317000,-68948000,0,391623000,178358000,232808000,35570000,213518000.0,2267673000,-1902596000,0,-1902596000,0,0,0,0,0,0,0,79036000.0,-1823560000,0,-28897000,-28897000,0,-5254000,-51780000,-4083000.0,-90014000,-5096000,349003000,-1902596000,0,0,496220000,-501474000,2288369000,365077000,0.3588,838673750,16033314000,16033314000,0.0753,0.1502,0.1092,0.1173,0.1574,0.1574,0.6913,0.5428,0.3183,0.2445,0.1567,0.0866,2.0046,0.4988,0.3685,0.1838,7.6914,4.1753,2.4483,1.8807,0.6661,29.254,29.254,53605694550,57841434550,22.6824,3.3433,3.3433,3.4968,59.2162,14.462,24.4747,3.6075,3.6075,3.7731,63.8953,15.6047,0.2831,0.3458,0.3672,0.6219,0.3544,0.3359,0.3296,0.0065,0.5046,0.1278,0.1384,0.1655,0.5914,-0.1215,2.3452,0.0,0.0005,0.0524,0.0187,0.0262,0.0252,0.0,0.0162,0.0594,1.4201,0.0776,12.1059,323000.0,4242319000,546495000,0.094,2014-05-06,98.09,0,0.72568884754953,0.23419996674513,0.37265751063127,0.17766558301655,0.066445382821549,0.11584338493581,0.093229709864618,1.7341984646263,0.14042731753735,0.24633447707384,0.18434257971262,1,FY2014.FQ1
2014-06-30,4403834000,1375530000,3028304000,1134447000,0,0,484678000,1619125000,1409179000,0,-51867000,-51867000,-256499000,1100813000,-394460000,706353000,0,0,0,706353000,0,706353000,1.3,1.29,543099000,548676000,996602000,1230140000,0,1926775000,667108000,900722000,4724745000,0,49645012000,-21449581000,28195431000,0,0,382258000.0,33302434000,2661473000,228569000,0,6579000,0,0,0,640866000,3537487000,5903099000,0,0,6162010000,991450000,16594046000,205000000,0,13398901000,426588000,2728482000,-51065000,0,481999.99999997,16708388000,33302434000,28577689000,13056559000,706353000,996602000,-105019000,-40808000,0,-44412000,-190239000,246301000,29580000,145978000.0,1934575000,-2224862000,0,-2224862000,0,0,0,0,0,0,0,-64142000.0,-2289004000,0,-60627000,-60627000,0,-1484000,-67904000,45831000.0,-84184000,1541000,-437072000,-2224862000,0,0,0,-1484000,2405781000,-290287000,0.3583,880736875,16708388000,16708388000,0.0736,0.1472,0.1081,0.1156,0.1684,0.1684,0.6876,0.5462,0.3199,0.2499,0.1603,-0.0659,1.9931,0.5017,0.3536,0.1774,8.0262,4.3847,2.5683,2.0063,-0.529,30.4521,30.4521,63973487820,68646446820,26.5453,3.8288,3.8288,3.9685,138.6291,16.959,28.4843,4.1085,4.1085,4.2584,148.7553,18.1977,0.2187,0.2575,0.3104,0.5228,0.0633,0.0707,0.0661,0.0058,0.0017,0.147,0.1453,0.1615,0.0231,-0.2806,-2.8911,0.3297,0.0017,0.0767,0.1934,0.0297,0.0282,0.0,0.0456,0.0457,1.3356,0.0968,1.3719,942000.0,4679538000,547437000,0.125,2014-08-05,116.86,0,0.72568884754953,0.23419996674513,0.37265751063127,0.17766558301655,0.066445382821549,0.11584338493581,0.093229709864618,1.7341984646263,0.14042731753735,0.24633447707384,0.18434257971262,2,FY2014.FQ2
2014-09-30,4570470000,1449979000,3120491000,1310583000,0,0,497675000,1808258000,1312233000,0,-49704000,-49704000,452591000,1715120000,-611502000,1103618000,0,0,0,1103618000,0,1103618000,2.03,2.01,543984000,549518000,1040018000,1481145000,0,2027069000,672899000,703603000,4884716000,0,51484475000,-22267642000,29216833000,0,0,399334000.0,34500883000,2775342000,257948000,0,6579000,0,0,2444000,336433000,3378746000,5903232000,0,0,6414546000,1084461000,16780985000,205000000,0,14410707000,387725000,2785716000,-69738000,0,488000.0,17719898000,34500883000,29616167000,13402239000,1103618000,1040018000,-91707000,-9410000,0,292038000,190921000,495413000,38490000,-531991000.0,2336469000,-2112755000,0,-2112755000,0,0,0,0,0,0,0,94202000.0,-2018553000,0,-25300000,-25300000,0,-1499000,-67986000,24920000.0,-69865000,2954000,251005000,-2112755000,0,0,0,-1499000,2352251000,223714000,0.3565,820145625,17719898000,17719898000,0.0899,0.1772,0.1319,0.1401,0.1675,0.1675,0.6827,0.5146,0.2871,0.3752,0.2414,0.0489,1.947,0.5136,0.3335,0.1712,8.3172,4.2805,2.3879,3.1211,0.4071,32.2462,32.2462,54253058000,58675145000,17.7815,3.0617,3.0617,3.2148,91.2463,11.3838,19.2308,3.3112,3.3112,3.4768,98.6836,12.3116,0.1981,0.221,0.1365,0.1501,1.3769,1.3862,1.3647,0.0043,0.123,0.1413,0.1444,0.1923,0.1609,-0.0993,1.469,0.0,0.0008,0.0582,0.1285,0.0304,0.0315,0.0,0.0456,0.0804,1.4457,0.0621,1.3836,463000.0,4428666000,547900000,0.125,2014-11-04,99.02,0,0.72568884754953,0.23419996674513,0.37265751063127,0.17766558301655,0.066445382821549,0.11584338493581,0.093229709864618,1.7341984646263,0.14042731753735,0.24633447707384,0.18434257971262,3,FY2014.FQ3
2014-12-31,3449488000,1432496000,2016992000,993874000,0,0,442873000,1436747000,580245000,0,-49735000,-49735000,618083000,1148593000,-704005000,444588000,0,0,0,444588000,0,444588000,0.82,0.81,544514000,548953000,1013930000,2087213000,0,1850932000,706597000,771279000,5416021000,0,50254490000,-21081846000,29172644000,0,0,174022000.0,34762687000,2860548000,140098000,0,6579000,0,0,110743000,266340000,3384308000,5903354000,0,0,6822946000,939497000,17050105000,205000000,0,14763098000,-23056000,2837150000,-70102000,0,491999.0,17712582000,34762687000,29346666000,13665797000,444588000,1013930000,426025000,-42792000,0,-121575000,261658000,730424000,41450000,-381612000.0,2110438000,-2006592000,0,-2006592000,0,0,0,0,0,0,0,624144000.0,-1382448000,0,-12600000,-12600000,0,-1509000,-92025000,22463000.0,-83671000,-38251000,606068000,-2006592000,0,0,0,-1509000,1594175000,103846000,0.6129,362653125,17712582000,17712582000,0.0841,0.1645,0.1234,0.1334,0.1485,0.1485,0.5847,0.4621,0.1682,0.3329,0.1288,0.0301,1.9625,0.5095,0.3336,0.17,6.2837,2.904,1.057,2.0923,0.1891,32.2661,32.2661,50481520650,54297661650,17.3149,2.85,2.85,3.0338,125.4666,10.1057,18.6238,3.0654,3.0654,3.2632,134.9513,10.8697,-0.0641,-0.1785,-0.1835,-0.4406,0.2497,-0.2337,-0.2358,0.0021,0.5833,0.1156,0.1369,0.1487,0.0545,-0.1767,-0.6492,0.344,0.0007,0.0288,0.0097,0.0294,0.0286,0.0,0.0705,0.035,1.6003,0.2074,17.7339,395000.0,3822720000,548295000,0.168,2015-02-18,92.07,0,0.72568884754953,0.23419996674513,0.37265751063127,0.17766558301655,0.066445382821549,0.11584338493581,0.093229709864618,1.7341984646263,0.14042731753735,0.24633447707384,0.18434257971262,4,FY2014.FQ4
2015-03-31,2230286000,1310278000,920008000,722959000,0,0,378423000,1101382000,-181374000,0,-53345000,-53345000,-1612000,-236331000,66583000,-169748000,0,0,0,-169748000,0,-169748000,-0.31,-0.31,544998000,544998000,912788000,2127419000,0,1327702000,764206000,574041000,4793368000,0,51577154000,-21855433000,29721721000,0,0,177365000.0,34692454000,2182041000,121729000,0,506579000,0,0,62209000,222194000,3094752000,6393690000,0,0,6774446000,959068000,17221956000,205000000,0,14501816000,-36434000,2819015000,-19391000,0,491999.0,17470498000,34692454000,29899086000,14127204000,-169748000,912788000,353100000,-62172000,0,-388457000,-97529000,-97241000,33050000,379227000.0,960547000,-1545599000,0,-1545599000,0,0,0,0,0,0,0,-258623000.0,-1804222000,0,-15459000,-15459000,0,988704000,-91661000,10988000.0,892572000,-8691000,40206000,-1545599000,0,0,990225000,-1521000,731414000,-585052000,0.0,-113358750,17470498000,17470498000,0.06,0.1185,0.0868,0.0952,0.0982,0.0982,0.4125,0.3279,-0.0813,-0.1059,-0.0761,-0.2623,1.9857,0.5035,0.3949,0.1988,4.0922,1.342,-0.3327,-0.4336,-1.0734,32.056,32.056,50321672560,54587943560,24.1372,2.8803,2.8803,3.4339,-91.8649,13.4975,26.1836,3.1245,3.1245,3.7251,-99.6532,14.6419,-0.4709,-0.6843,-0.6803,-1.1351,-1.2292,-1.2568,-1.2561,-0.0056,0.276,0.1008,0.0793,0.0896,-0.5764,0.1876,-2.6025,0.0,0.0009,-0.025,0.0,0.0215,0.0239,0.0,0.0705,-0.0394,1.5488,-0.5419,0.0,529000.0,4772850000,548824000,0.168,2015-05-04,91.69,0,0.72568884754953,0.23419996674513,0.37265751063127,0.17766558301655,0.066445382821549,0.11584338493581,0.093229709864618,1.7341984646263,0.14042731753735,0.24633447707384,0.18434257971262,1,FY2015.FQ1
2015-06-30,2509080000,1233888000,1275192000,752493000,0,0,360497000,1112990000,162202000,0,-60484000,-60484000,-113196000,-11478000,16746000,5268000,0,0,0,5268000,0,5268000,0.01,0.01,545504000,549683000,909227000,1367395000,0,1353296000,661162000,355865000,3737718000,0,52776302000,-22801124000,29975178000,0,0,171200000.0,33884096000,1864483000,164366000,0,6579000,0,0,0,242153000,2277581000,6393885000,0,0,6798629000,986758000,16456853000,205000000,0,14414926000,-28003000,2857588000,-22764000,0,495999.0,17427243000,33884096000,30146378000,14179272000,5268000,909227000,-54917000,99781000,0,-349995000,-305131000,-57562000,28600000,306971000.0,887373000,-1267846000,0,-1267846000,0,0,0,0,0,0,0,204886000.0,-1062960000,0,-10903000,-10903000,0,-501532000,-91469000,18405000.0,-585499000,1062000,-760024000,-1267846000,0,0,0,-501532000,1071429000,-380473000,0.0,101376250,17427243000,17427243000,0.0403,0.0793,0.0574,0.0619,0.0588,0.0588,0.5082,0.427,0.0646,-0.0045,0.002,-0.1516,1.9443,0.5143,0.3672,0.1888,4.5645,1.9491,0.295,-0.0208,-0.6921,31.7041,31.7041,48077732300,53104222300,34.7451,2.7587,2.7587,3.768,-75.361,18.379,38.3777,3.0471,3.0471,4.1619,-83.24,20.3005,-0.4302,-0.5789,-0.5546,-0.8848,-1.0104,-0.9925,-0.9922,0.0018,0.1115,0.0631,0.0174,0.043,-0.5413,0.4301,-0.3106,0.0,0.0005,-0.0174,0.0,0.0217,0.0275,0.0,0.0705,-0.0319,1.641,16.8,0.0,322000.0,5033069000,549146000,0.168,2015-08-06,87.55,0,0.72568884754953,0.23419996674513,0.37265751063127,0.17766558301655,0.066445382821549,0.11584338493581,0.093229709864618,1.7341984646263,0.14042731753735,0.24633447707384,0.18434257971262,2,FY2015.FQ2
2015-09-30,2130363000,1040890000,1089473000,706262000,0,0,326802000,1033064000,56409000,0,-60571000,-60571000,-6270759000,-6274921000,2199182000,-4075739000,0,0,0,-4075739000,0,-4075739000,-7.47,-7.47,545920000,545920000,722172000,742689000,0,1176778000,660252000,245239000,2824958000,0,53916125000,-29640793000,24275332000,0,0,176957000.0,27277247000,1561574000,174897000,0,36279000,0,0,0,274211000,2046961000,6393931000,0,0,4581844000,970288000,13993024000,206000000,0,10247349000,-34979000,2897439000,-31089000,0,-497000.0,13284223000,27277247000,24452289000,11946063000,-4075739000,722172000,150128000,-10602000,0,156301000,295827000,-2222227000,40280000,6371119000.0,1131432000,-1356915000,0,-1356915000,0,0,0,0,0,0,0,-321301000.0,-1678216000,0,-17057000,-17057000,0,28154000,-91447000,3980000.0,-76370000,-1552000,-624706000,-1356915000,0,0,29700000,-1546000,778581000,-225483000,0.0,35255625,13284223000,13284223000,-0.1241,-0.2471,-0.1743,-0.1832,0.0217,0.0217,0.5114,0.3654,0.0264,-2.9454,-1.9131,-0.1058,2.0533,0.487,0.484,0.2357,3.9023,1.4261,0.1033,-11.4942,-0.413,24.3336,24.3336,40015903200,45667145200,-10.5426,3.0122,3.0122,3.8778,-36.8076,-7.446,-12.0315,3.4376,3.4376,4.4254,-42.0058,-8.4975,-0.5338,-0.6508,-0.669,-0.957,-4.6585,-4.693,-4.7164,-0.0065,-0.4985,-0.1691,-0.2093,-0.2503,-0.5157,0.3577,-2.0079,0.0,0.0009,-0.0423,0.0,-0.0034,-0.0034,0.0,0.0705,-0.0228,1.38,-0.0224,0.0,523000.0,5687521000,549669000,0.168,2015-11-05,72.8,0,0.72568884754953,0.23419996674513,0.37265751063127,0.17766558301655,0.066445382821549,0.11584338493581,0.093229709864618,1.7341984646263,0.14042731753735,0.24633447707384,0.18434257971262,3,FY2015.FQ3
2015-12-31,1786664000,1057026000,729638000,570862000,0,0,321672000,892534000,-162896000,0,-62993000,-62993000,-172937000,-398826000,114530000,-284296000,0,0,0,-284296000,0,-284296000,-0.52,-0.52,546390000,546390000,769457000,718506000,0,971314000,598935000,303489000,2592244000,0,54599851000,-30389130000,24210721000,0,0,167505000.0,26970470000,1471953000,93618000,0,6579000,0,0,0,247137000,1819287000,6648911000,0,0,4587902000,971335000,14027435000,206000000,0,9870816000,-33338000,2923461000,-23406000,0,-497999.99999959,12943035000,26970470000,24378226000,12208148000,-284296000,769457000,193101000,31443000,0,-263595000,-39051000,-105277000,28650000,246330000.0,615813000,-842803000,0,-842803000,0,0,0,0,0,0,0,67945000.0,-774858000,0,-5372000,-5372000,0,228461000,-92428000,9557000.0,140218000,-5356000,-24183000,-842803000,0,0,230018000,-1557000,606561000,-226990000,0.0,-101810000,12943035000,12943035000,-0.1668,-0.345,-0.2301,-0.239,-0.0049,-0.0049,0.4083,0.3394,-0.0911,-0.2232,-0.1591,-0.127,2.0837,0.4798,0.5142,0.2467,3.2699,1.1101,-0.2981,-0.7299,-0.4154,23.6882,23.6882,38924518610,44854923610,-8.603,3.0073,3.0073,4.4966,-27.4503,-5.6236,-9.9137,3.4655,3.4655,5.1817,-31.6325,-6.4804,-0.482,-0.6382,-0.6195,-1.2807,-1.3472,-1.6394,-1.6419,-0.0046,-0.6557,-0.17,-0.2241,-0.2692,-0.7082,0.5799,-3.1858,0.0,0.0003,-0.068,0.0,-0.0074,-0.0105,0.0,0.0597,-0.1061,1.4248,-0.323,0.0,190000.0,5936984000,549859000,0.168,2016-02-25,70.79,0,0.72568884754953,0.23419996674513,0.37265751063127,0.17766558301655,0.066445382821549,0.11584338493581,0.093229709864618,1.7341984646263,0.14042731753735,0.24633447707384,0.18434257971262,4,FY2015.FQ4
2016-03-31,1328486000,1198280000,130206000,441385000,0,0,269927000,711312000,-581106000,0,-68390000,-68390000,-61472000,-710968000,239192000,-471776000,0,0,0,-471776000,0,-471776000,-0.86,-0.86,546715000,546715000,928891000,668481000,0,819670000,538926000,338735000,2365812000,0,55163642000,-31362209000,23801433000,0,0,171178000.0,26338423000,1182025000,93077000,0,6579000,0,0,0,266291000,1547972000,6979029000,0,0,4420221000,985713000,13932935000,206000000,0,9308463000,-31131000,2951861000,-29211000,0,-494000.0,12405488000,26338423000,23972611000,12384963000,-471776000,928891000,132398000,57578000,0,-273001000,-83025000,-196696000,32380000,81817000.0,291591000,-573191000,0,-573191000,0,0,0,0,0,0,0,4439000.0000001,-568752000,0,-12672000,-12672000,0,329810000,-92170000,1096000.0,226064000,1072000,-50025000,-573191000,0,0,991097000,-661287000,347785000,-281600000,0.0,-363191250,12405488000,12405488000,-0.181,-0.3808,-0.2475,-0.2567,-0.021,-0.021,0.098,0.2617,-0.4374,-0.5351,-0.3551,-0.2119,2.1231,0.471,0.5631,0.2652,2.4299,0.6361,-1.0629,-1.3004,-0.515,22.6909,22.6909,39932935360,46243483360,-8.2736,3.2189,3.2189,5.1495,-35.8288,-5.3991,-9.581,3.7276,3.7276,5.9633,-41.4908,-6.2523,-0.4043,-0.8584,-0.5245,-2.2039,-2.0083,-1.7792,-1.7741,0.0031,-0.6857,-0.1991,-0.2408,-0.2899,-0.6964,0.6291,0.5186,0.0,0.0006,-0.1001,0.0,-0.0134,-0.0179,0.0,0.0597,-0.1756,1.5283,-0.1953,0.0,333000.0,6317127000,550192000,0.168,2016-05-05,72.58,0,0.72568884754953,0.23419996674513,0.37265751063127,0.17766558301655,0.066445382821549,0.11584338493581,0.093229709864618,1.7341984646263,0.14042731753735,0.24633447707384,0.18434257971262,1,FY2016.FQ1
2016-06-30,1812572000,1110110000,702462000,577751000,0,0,280247000,857998000,-155536000,0,-71108000,-71108000,-153633000,-380277000,87719000,-292558000,0,0,0,-292558000,0,-292558000,-0.53,-0.53,547335000,547335000,862491000,779722000,0,940472000,495826000,234101000,2450121000,0,55356752000,-32143873000,23212879000,0,0,167538000.0,25830538000,1305651000,138395000,0,6579000,0,0,0,261636000,1712261000,6979286000,0,0,4103777000,978513000,13773837000,206000000,0,8923666000,-25264000,2982047000,-29258000,0,-490000.0,12056701000,25830538000,23380417000,12061576000,-292558000,862491000,-154970000,38235000,0,76486000,-40249000,-187598000,27090000,133970000.0,503146000,-614942000,0,-614942000,0,0,0,0,0,0,0,302567000.0,-312375000,0,-16083000,-16083000,0,-1581000,-91866000,19713000.0,-89817000,10287000,111241000,-614942000,0,0,0,-1581000,706955000,-111796000,0.0,-97210000,12056701000,12056701000,-0.1964,-0.4189,-0.2666,-0.2771,-0.0344,-0.0344,0.3875,0.39,-0.0858,-0.2097,-0.1614,-0.0616,2.1424,0.4667,0.5794,0.2704,3.3116,1.2916,-0.2841,-0.6947,-0.2042,22.028,22.028,45933471180,52133035180,-8.9637,3.8097,3.8097,6.5079,-54.3032,-5.9154,-10.1735,4.3239,4.3239,7.3862,-61.6325,-6.7138,-0.2775,-0.4491,-0.3401,-1.9589,-32.1309,-56.5349,-54.0,-0.0042,-0.4297,-0.2255,-0.2376,-0.3081,-0.4329,0.5149,0.7061,0.0,0.0007,-0.0685,0.0,-0.0167,-0.0242,0.0,0.0597,-0.1289,1.4309,-0.3169,0.0,437000.0,6206143000,550629000,0.168,2016-08-04,83.42,0,0.72568884754953,0.23419996674513,0.37265751063127,0.17766558301655,0.066445382821549,0.11584338493581,0.093229709864618,1.7341984646263,0.14042731753735,0.24633447707384,0.18434257971262,2,FY2016.FQ2
2016-09-30,1987905000,1158494000,829411000,646884000,0,0,311338000,958222000,-128811000,0,-70858000,-70858000,-72581000,-272250000,82250000,-190000000,0,0,0,-190000000,0,-190000000,-0.35,-0.35,547838000,547838000,899511000,1048727000,0,920367000,429667000,339003000,2737764000,0,54479581000,-31835196000,22644385000,0,0,172772000.0,25554921000,1296240000,143257000,0,6579000,0,0,0,286887000,1732963000,6979538000,0,0,4068345000,975763000,13756609000,206000000,0,8641704000,-25100000,2992887000,-16693000,0,-486000.0,11798312000,25554921000,22817157000,12023646000,-190000000,899511000,10712000,41750000,0,13811000,66273000,-108195000,37600000,54392000.0,759581000,-653757000,0,-653757000,0,0,0,0,0,0,0,271273000.0,-382484000,0,-26886000,-26886000,0,-1596000,-92690000,13089000.0,-108083000,-9000,269005000,-653757000,0,0,0,-1596000,770700000,105824000,0.0,-80506875,11798312000,11798312000,-0.0482,-0.1038,-0.0654,-0.0688,-0.0428,-0.0428,0.4172,0.3876,-0.0647,-0.1369,-0.0955,0.0532,2.1659,0.4616,0.5921,0.2733,3.6286,1.4068,-0.2351,-0.4969,0.1931,21.5361,21.5361,53309356590,59240167590,-43.0389,4.5183,4.5183,7.7085,-103.6014,-30.2495,-47.8271,5.021,5.021,8.5661,-115.1273,-33.6148,-0.0668,-0.2387,-0.0101,-3.2835,0.9566,0.9533,0.9531,0.0035,0.412,-0.0671,-0.0631,-0.1118,-0.3286,0.5182,1.4693,0.0,0.001,-0.0724,0.0,-0.0226,-0.0302,-0.1164,0.0597,-0.1036,1.5798,-0.48,0.0,600000.0,5937390000,551229000,0.168,2016-11-03,96.71,0,0.72568884754953,0.23419996674513,0.37265751063127,0.17766558301655,0.066445382821549,0.11584338493581,0.093229709864618,1.7341984646263,0.14042731753735,0.24633447707384,0.18434257971262,3,FY2016.FQ3
2016-12-30,2334039000,1136886000,1197153000,736430000,0,0,306511000,1042941000,154212000,0,-71325000,-71325000,-276897000,-194010000,51658000,-142352000,0,0,0,-142352000,0,-142352000,-0.25,-0.25,571651000,571651000,862524000,1599895000,0,1228625000,350017000,206679000,3385216000,0,53600655000,-27893577000,25707078000,0,0,206907000.0,29299201000,1511826000,118411000,0,6579000,0,0,0,390475000,2027291000,6979779000,0,0,5028408000,1282142000,15317620000,206000000,0,8398118000,-19010000,5420385000,-23682000,0,-229999.99999956,13981581000,29299201000,25913985000,13290329000,-142352000,862524000,-220939000,33131000,0,-11525000,-199333000,-22717000,31020000,275603000.0,804745000,-740905000,0,-740905000,0,0,0,0,0,0,0,751572000.0,10667000,0,-26484000,-26484000,0,-165436000,-96119000,17153000.0,-270886000,6642000,551168000,-740905000,0,0,0,-165436000,1016736000,63840000,0.0,96382500,13981581000,13981581000,-0.0399,-0.085,-0.0551,-0.0591,-0.0278,-0.0278,0.5129,0.4356,0.066,-0.0831,-0.0609,0.0273,2.0955,0.4772,0.4996,0.2384,4.0829,1.7785,0.2697,-0.3393,0.1116,24.4582,24.4582,58304370000,63684254000,-53.1641,4.17,4.17,7.8124,-260.5991,-37.4344,-58.0697,4.5548,4.5548,8.5333,-284.6452,-40.8886,0.3063,0.6407,0.6762,1.9466,0.5135,0.4992,0.5192,0.0462,1.2266,0.0618,0.0863,0.0802,0.3068,0.1209,1.2812,0.0,0.0462,-0.0615,0.0,-0.0127,-0.0176,0.0,0.03,-0.0839,1.6698,-0.672,0.0,25471000.0,5386463000,576700000,0.168,2017-02-27,101.1,0,0.72568884754953,0.23419996674513,0.37265751063127,0.17766558301655,0.066445382821549,0.11584338493581,0.093229709864618,1.7341984646263,0.14042731753735,0.24633447707384,0.18434257971262,4,FY2016.FQ4
2017-03-31,2540644000,1109957000,1430687000,833774000,0,0,341242000,1175016000,255671000,0,-71515000,-71515000,-144774000,39382000,-10865000,28517000,0,0,0,28517000,0,28517000,0.05,0.05,573935000,578593000,816036000,1546566000,0,1267615000,314194000,265701000,3394076000,0,54173329000,-28566869000,25606460000,0,0,211438000.0,29211974000,1556875000,143710000,0,6579000,0,0,0,324843000,2032007000,6980008000,0,0,5023626000,1248102000,15283743000,206000000,0,8329951000,-18664000,5447291000,-36123000,0,-223999.0,13928231000,29211974000,25817898000,13251736000,28517000,816036000,28688000,24736000,0,-177439000,-124015000,694000,30460000,146357000.0,898049000,-946563000,0,-946563000,0,0,0,0,0,0,0,110136000.0,-836427000,0,-18628000,-18628000,0,-1619000,-96707000,2356000.0,-114598000,-353000,-53329000,-946563000,0,0,0,-1619000,1071707000,-48514000,0.2758,159794375,13928231000,13928231000,-0.0203,-0.0427,-0.0284,-0.0307,0.0046,0.0046,0.5631,0.4218,0.1006,0.0155,0.0112,-0.019,2.0973,0.4767,0.5016,0.2391,4.391,1.8522,0.4418,0.068,-0.0838,24.0725,24.0725,56311517900,61744959900,-94.4201,4.0429,4.0429,6.4911,6020.0468,-69.7654,-103.5306,4.433,4.433,7.1174,6600.9151,-76.497,0.9124,9.9878,2.0815,1.4399,1.0553,1.0604,1.0581,0.0583,1.3135,0.0758,0.1091,0.1227,2.0798,-0.6513,0.8277,0.0,0.0009,-0.057,-0.3088,-0.0165,-0.0237,0.0,0.03,-0.0911,1.6703,3.36,3.0572,558000.0,5440021000,577258000,0.168,2017-05-08,97.55,0,0.72568884754953,0.23419996674513,0.37265751063127,0.17766558301655,0.066445382821549,0.11584338493581,0.093229709864618,1.7341984646263,0.14042731753735,0.24633447707384,0.18434257971262,1,FY2017.FQ1
2017-06-30,2595166000,1155316000,1439850000,899106000,0,0,334432000,1233538000,206312000,0,-70413000,-70413000,-73432000,62467000,-39414000,23053000,0,0,0,23053000,0,23053000,0.04,0.04,574439000,578483000,865384000,1649443000,0,1205710000,336198000,192022000,3383373000,0,54857519000,-29277359000,25580160000,0,0,300084000.0,29263617000,1615170000,155458000,0,606454000,0,0,0,345172000,2722254000,6380350000,0,0,5059520000,1199778000,15361902000,206000000,0,8256359000,-17490000,5485832000,-28763000,0,-222999.99999996,13901715000,29263617000,25880244000,12639648000,23053000,865384000,75098000,-30865000,0,7923000,52156000,34468000,27600000,75715000.0,1078376000,-1026930000,0,-1026930000,0,0,0,0,0,0,0,144262000.0,-882668000,0,-3050000,-3050000,0,-1632000,-96277000,7252000.0,-93707000,876000,102877000,-1026930000,0,0,0,-1632000,1071696000,51446000,0.6309,128945000,13901715000,13901715000,-0.0096,-0.0201,-0.0134,-0.0145,0.0179,0.0179,0.5548,0.4129,0.0794,0.024,0.0088,0.0198,2.105,0.475,0.5025,0.2387,4.4861,1.8525,0.3566,0.1079,0.0889,24.0313,24.0313,52265795400,56996702400,-186.1436,3.7596,3.7596,5.5262,302.8215,-143.4254,-202.9927,4.0999,4.0999,6.0264,330.2318,-156.4077,0.4317,1.0497,0.5159,2.3264,1.1642,1.0787,1.0754,0.0569,1.1154,0.1019,0.1329,0.153,1.1432,-0.6699,1.4601,0.0,0.0002,-0.028,-0.2597,-0.017,-0.0239,-0.0678,0.0,-0.0649,1.2428,4.2,7.1652,137000.0,5337361000,577395000,0.168,2017-08-01,90.52,0,0.72568884754953,0.23419996674513,0.37265751063127,0.17766558301655,0.066445382821549,0.11584338493581,0.093229709864618,1.7341984646263,0.14042731753735,0.24633447707384,0.18434257971262,2,FY2017.FQ2
2017-09-29,2636218000,1130755000,1505463000,905253000,0,0,316889000,1222142000,283321000,0,-69082000,-69082000,-68259000,145980000,-45439000,100541000,0,0,0,100541000,0,100541000,0.17,0.17,574783000,578736000,846222000,846138000,0,1370416000,344016000,203393000,2763963000,0,55651136000,-29926547000,25724589000,0,0,316753000.0,28805305000,1635711000,180277000,0,6579000,0,0,0,357457000,2180024000,6380427000,0,0,5107477000,1215113000,14883041000,206000000,0,8259971000,-17160000,5513631000,-39964000,0,-213999.99999994,13922264000,28805305000,26041342000,12703017000,100541000,846222000,-129231000,-11545000,0,-41094000,-181870000,79688000,43480000,73302000.0,961363000,-1094053000,0,-1094053000,0,0,0,0,0,0,0,57664000.0,-1036389000,0,-28696000,-28696000,0,-601646000,-96277000,1470000.0,-725149000,-3130000,-803305000,-1094053000,0,0,0,-601646000,1129543000,-132690000,0.3112,177075625,13922264000,13922264000,0.0003,0.0007,0.0004,0.0005,0.0334,0.0334,0.571,0.4284,0.1074,0.0553,0.0381,-0.0503,2.069,0.4833,0.4587,0.2217,4.5551,1.9517,0.4895,0.2522,-0.2292,24.0563,24.0563,55975611620,61509900620,5735.7937,4.0205,4.0205,5.5388,-849.1703,1040.0715,6302.8897,4.418,4.418,6.0864,-933.1275,1142.903,0.3261,0.815,0.4656,3.1995,1.5361,1.5291,1.4857,0.0563,-0.1931,0.136,0.1271,0.18,0.2656,-0.6734,-2.2538,0.0,0.0012,0.0168,0.0,-0.0184,-0.0224,0.0,0.0,0.0001,1.2678,0.9882,0.0,746000.0,5540868000,578141000,0.168,2017-11-02,96.82,0,0.72568884754953,0.23419996674513,0.37265751063127,0.17766558301655,0.066445382821549,0.11584338493581,0.093229709864618,1.7341984646263,0.14042731753735,0.24633447707384,0.18434257971262,3,FY2017.FQ3
2017-12-29,3433950000,1206981000,2226969000,1126571000,0,0,360792000,1487363000,739606000,0,-63362000,-63362000,-262891000,413353000,2017115000,2430468000,0,0,0,2430468000,0,2430468000,4.22,4.2,575370000,579413000,881745000,834228000,0,1710851000,483865000,250164000,3279108000,0,56516500000,-30851463000,25665037000,0,0,888933000.0,29833078000,1847131000,148874000,0,356235000,0,0,0,373302000,2725542000,6030836000,0,0,3518214000,1275213000,13549805000,206000000,0,10593533000,-19297000,5536547000,-33298000,0,-211999.99999953,16283273000,29833078000,26553970000,10824263000,2430468000,881745000,-366686000,-156874000,0,-187623000,-711183000,-1588722000,32310000,282930000.0,1327548000,-1056696000,0,-1056696000,0,0,0,0,0,0,0,-175229000.0,-1231925000,0,-13034000,-13034000,0,-1658000,-97270000,9705000.0,-102257000,-5276000,-11910000,-1056696000,0,0,0,-1658000,1621351000,270852000,0.0,462253750,16283273000,16283273000,0.088,0.171,0.1201,0.125,0.0548,0.0548,0.6485,0.4721,0.2153,0.1203,0.7077,0.0788,1.8321,0.5458,0.3922,0.214,5.9266,2.7982,1.2764,0.7133,0.4674,28.103,28.103,62423453070,67620061070,24.1709,3.8335,3.8335,5.5705,442.4245,94.4119,26.1831,4.1527,4.1527,6.0342,479.2553,102.2714,0.4712,0.8602,0.5946,3.796,3.1305,18.0736,17.8,0.0135,-0.4785,-0.0016,0.0182,0.1646,0.6496,-0.4262,3.2426,0.0,0.0005,0.0318,0.8294,-0.0126,-0.0067,0.0,0.0,0.0411,1.2031,0.04,0.2914,336000.0,5552843000,578477000,0.168,2018-02-27,107.91,0,0.72568884754953,0.23419996674513,0.37265751063127,0.17766558301655,0.066445382821549,0.11584338493581,0.093229709864618,1.7341984646263,0.14042731753735,0.24633447707384,0.18434257971262,4,FY2017.FQ4
2018-03-30,3724311000,1150000000,2574311000,1201088000,0,0,359286000,1560374000,1013937000,0,-61956000,-61956000,-138622000,813359000,-174770000,638589000,0,0,0,638589000,0,638589000,1.11,1.1,575775000,579726000,748591000,816094000,0,1964889000,584729000,219385000,3585097000,0,57937219000,-31561571000,26375648000,0,0,779772000.0,30740517000,1915651000,179646000,0,363155000,0,0,0,378306000,2836758000,6071604000,0,0,3689578000,1301938000,13899878000,206000000,0,11125051000,-14289000,5569194000,-45110000,0,-206999.0,16840639000,30740517000,27155420000,11063120000,638589000,748591000,-109654000,-106799000,0,55672000,-160781000,171362000,35490000,118915000.0,1552166000,-1441211000,0,-1441211000,0,0,0,0,0,0,0,-15216000.0,-1456427000,0,-16776000,-16776000,0,-1671000,-97026000,1510000.0,-113963000,90000,-18134000,-1441211000,0,0,0,-1671000,1762528000,110955000,0.2148,633710625,16840639000,16840639000,0.1054,0.1927,0.1389,0.1441,0.0805,0.0805,0.6912,0.4732,0.2722,0.2183,0.1714,0.0297,1.8253,0.5478,0.382,0.2093,6.4242,3.0402,1.7489,1.403,0.1913,29.0493,29.0493,60931644510,66187154510,19.0849,3.6181,3.6181,4.9179,202.725,42.4563,20.731,3.9302,3.9302,5.3421,220.2105,46.1183,0.4658,0.7993,0.6445,2.9657,19.653,21.3932,21.0,0.0019,-0.4723,0.03,0.0523,0.2091,0.7283,-0.5225,3.287,0.0,0.0005,0.0574,0.0,0.012,0.024,0.0,0.0,0.0321,1.2638,0.1527,0.0,336000.0,5618665000,578813000,0.168,2018-05-03,105.27,0,0.72568884754953,0.23419996674513,0.37265751063127,0.17766558301655,0.066445382821549,0.11584338493581,0.093229709864618,1.7341984646263,0.14042731753735,0.24633447707384,0.18434257971262,1,FY2018.FQ1
2018-06-29,4401163000,1272447000,3128716000,1524546000,0,0,395331000,1919877000,1208839000,0,-63444000,-63444000,-252459000,892936000,-196205000,696731000,0,0,0,696731000,0,696731000,1.21,1.2,576135000,580375000,848674000,1008215000,0,2272109000,670994000,280534000,4231852000,0,59460529000,-32306734000,27153795000,0,0,706733000.0,32092380000,2336952000,213461000,0,1262540000,0,0,0,484348000,4297301000,5172257000,0,0,3865804000,1304624000,14639986000,206000000,0,11714656000,-17512000,5591643000,-42189000,0,-204000.0,17452394000,32092380000,27860528000,10342685000,696731000,848674000,-200097000,-85420000,0,279550000,-5967000,176224000,31800000,194155000.0,1941617000,-1683933000,0,-1683933000,0,0,0,0,0,0,0,50742000.0,-1633191000,0,-15247000,-15247000,0,-1683000,-106584000,9664000.0,-113850000,-2455000,192121000,-1683933000,0,0,0,-1683000,2057513000,257684000,0.2197,755524375,17452394000,17452394000,0.123,0.2254,0.1639,0.1705,0.1132,0.1132,0.7108,0.4674,0.2746,0.2028,0.1583,0.0585,1.8388,0.5438,0.3687,0.2005,7.5833,3.5451,2.0828,1.5385,0.4439,30.0708,30.0708,72068238410,76232280410,18.6399,4.1294,4.1294,5.0767,142.2022,31.8093,19.7169,4.368,4.368,5.3701,150.4185,33.6473,0.6959,1.1729,0.9198,4.8592,13.2945,29.223,29.0,0.0032,-0.3887,0.0615,0.0966,0.2554,0.8005,-0.6397,4.0088,0.1011,0.0006,0.0943,0.0,0.0175,0.0303,0.0,0.0096,0.1216,0.9847,0.1541,0.0,374000.0,5426582000,579187000,0.185,2018-08-02,124.43,0,0.72568884754953,0.23419996674513,0.37265751063127,0.17766558301655,0.066445382821549,0.11584338493581,0.093229709864618,1.7341984646263,0.14042731753735,0.24633447707384,0.18434257971262,2,FY2018.FQ2
2018-09-28,4681687000,1353811000,3327876000,1438258000,0,0,402177000,1840435000,1487441000,0,-63632000,-63632000,22554000,1446363000,-255411000,1190952000,0,0,0,1190952000,0,1190952000,2.06,2.05,577254000,581559000,918180000,1274132000,0,2472185000,766964000,303811000,4817092000,0,60991195000,-33043454000,27947741000,0,0,872902999.99999,33637736000,2435773000,249234000,0,1262874000,0,0,0,477266000,4425147000,5171949000,0,0,4199921000,1302249000,15099266000,206000000,0,12778104000,-19458000,5626259000,-52238000,0,-196999.0,18538470000,33637736000,28820644000,10674119000,1190952000,918180000,-243778000,-94598000,0,142786000,-195590000,334116000,49000000,-107061000.0,2189597000,-1649172000,0,-1649172000,0,0,0,0,0,0,0,-139478000.0,-1788650000,0,-26535000,-26535000,0,-1698000,-107465000,980999.99999999,-134717000,-313000,265917000,-1649172000,0,0,0,-1698000,2405621000,540425000,0.1765,929650625,18538470000,18538470000,0.1508,0.2754,0.2028,0.2128,0.1494,0.1494,0.7108,0.5138,0.3177,0.3089,0.2543,0.1154,1.8144,0.5511,0.3471,0.1912,8.0502,4.1365,2.5576,2.487,0.9292,31.8771,31.8771,73969040670,77866857670,14.9229,3.99,3.99,4.5544,62.69,20.7427,15.7092,4.2002,4.2002,4.7944,65.9935,21.8358,0.7759,1.2105,1.1297,4.25,8.9079,10.8454,11.0588,0.0048,0.5058,0.0864,0.1677,0.3315,1.2775,-0.5073,5.0728,0.0,0.0011,0.1342,0.0,0.0247,0.0409,0.0,0.0096,0.2233,1.0885,0.0902,0.0,644000.0,5160691000,579831000,0.185,2018-11-01,127.57,0,0.72568884754953,0.23419996674513,0.37265751063127,0.17766558301655,0.066445382821549,0.11584338493581,0.093229709864618,1.7341984646263,0.14042731753735,0.24633447707384,0.18434257971262,3,FY2018.FQ3
2018-12-31,4369681000,1378801000,2990880000,1466320000,0,0,427332000,1893652000,1097228000,0,-56020000,-56020000,47132000,1088340000,-195572000,892768000,0,0,0,892768000,0,892768000,1.55,1.54,577019000,580438000,919963000,1555634000,0,2343124000,859359000,299273000,5057390000,0,61550681000,-33475162000,28075519000,0,0,801565000.0,33934474000,2239850000,214726000,0,913093000,0,0,0,360695000,3728364000,5170169000,0,0,4413398000,1258355000,14570286000,206000000,0,13543130000,-1358000,5658794000,-42182000,0,-195999.99999991,19364188000,33934474000,28877084000,10841922000,892768000,919963000,185349000,-108591000,0,55475000,132233000,212454000,39050000,-111240000.0,2085228000,-1302159000,0,-1302159000,0,0,0,0,0,0,0,10265000.0,-1291894000,0,-4898000,-4898000,0,-353167000,-126970000,8462000.0,-476573000,-35259000,281502000,-1302159000,0,0,0,-353167000,2017191000,783069000,0.1796,685767500,19364188000,19364188000,0.1011,0.1804,0.1356,0.1436,0.156,0.156,0.6844,0.4616,0.2511,0.249,0.2043,0.1792,1.7524,0.5706,0.3141,0.1792,7.5282,3.4752,1.8903,1.875,1.3491,33.3613,33.3613,50583805830,54198340830,14.7947,2.6122,2.6122,2.9448,29.8935,11.9273,15.8519,2.7988,2.7988,3.1553,32.0295,12.7796,0.2724,0.343,0.2441,0.4835,1.6329,-0.6326,-0.6333,0.0017,0.8647,0.0939,0.1374,0.1892,0.5707,-0.2322,1.8911,0.1891,0.0003,0.0919,0.0,0.0276,0.0485,0.0,0.0273,0.1527,1.3564,0.1428,0.0,192000.0,4527628000,580023000,0.22,2019-02-26,87.21,0,0.72568884754953,0.23419996674513,0.37265751063127,0.17766558301655,0.066445382821549,0.11584338493581,0.093229709864618,1.7341984646263,0.14042731753735,0.24633447707384,0.18434257971262,4,FY2018.FQ4
2019-03-29,4039667000,1327181000,2712486000,1376729000,0,0,362455000,1739184000,973302000,0,-54906000,-54906000,-91160000,827236000,-191810000,635426000,0,0,0,635426000,0,635426000,1.1,1.1,577207000,580222000,879595000,1135810000,0,2643655000,860764000,267656000,4907885000,0,62969634000,-33840631000,29129003000,0,0,1626647000.0,35663535000,2452337000,239524000,0,914861000,396294000,0,0,298252000,4301268000,5166050000,0,0,4520172000,1772248000,15759738000,206000000,0,14050676000,-2869000,5695197000,-45014000,0,-193000.0,19903797000,35663535000,30755650000,11458470000,635426000,879595000,-308996000,-18979000,0,153672000,-174303000,106324000,39090000,121637000.0,1607769000,-2000436000,0,-2000436000,0,0,0,0,0,0,0,109430000.0,-1891006000,0,-6248000,-6248000,0,-3190000,-127546000,403000.00000002,-136581000,-6000,-419824000,-2000436000,0,0,0,-3190000,1852897000,-392667000,0.2318,608313750,19903797000,19903797000,0.0981,0.1739,0.1328,0.1401,0.1503,0.1503,0.6714,0.4586,0.2409,0.2047,0.1572,-0.0972,1.7917,0.558,0.3055,0.1705,6.9622,3.1934,1.6774,1.4257,-0.6767,34.3037,34.3037,55234381700,59264621700,16.1698,2.775,2.775,3.1576,46.4735,12.9814,17.3497,2.9775,2.9775,3.388,49.8645,13.9286,0.0846,0.0536,0.0512,-0.04,0.017,-0.0049,0.0,0.0008,0.3917,0.1043,0.1601,0.1818,0.0358,-0.388,-4.5389,0.0,0.0005,0.0734,0.0,0.0338,0.0536,0.0,0.0273,0.0778,1.141,0.2,0.0,292000.0,4945101000,580315000,0.22,2019-05-02,95.18,0,0.72568884754953,0.23419996674513,0.37265751063127,0.17766558301655,0.066445382821549,0.11584338493581,0.093229709864618,1.7341984646263,0.14042731753735,0.24633447707384,0.18434257971262,1,FY2019.FQ1
2019-06-28,4486518000,1417228000,3069290000,1622695000,0,0,389003000,2011698000,1057592000,0,-49908000,-49908000,81682000,1089366000,-241525000,847841000,0,0,0,847841000,0,847841000,1.47,1.46,577460000,580247000,957304000,1160485000,0,2123317000,853128000,358591000,4495521000,0,64542826000,-34818395000,29724431000,0,0,1531549000.0,35751501000,2387403000,268837000,0,1013876000,396547000,0,0,347394000,4414057000,4165284000,0,0,4738409000,1803475000,15121225000,206000000,0,14731609000,-4528000,5729318000,-31932000,0,-190999.0,20630276000,35751501000,31255980000,10707168000,847841000,957304000,239250000,7720000,0,433708000,680678000,217970000,38570000,-55820000.0,2686543000,-1562942000,0,-1562942000,0,0,0,0,0,0,0,-69732000.0,-1632674000,0,-2155000,-2155000,0,-903213000,-127135000,3367999.9999999,-1029135000,-59000,24675000,-1562942000,0,0,0,-903213000,2014896000,1123601000,0.2217,660995000,20630276000,20630276000,0.0998,0.1759,0.1377,0.1441,0.1428,0.1428,0.6841,0.4491,0.2357,0.2428,0.1889,0.2504,1.7329,0.577,0.251,0.1448,7.732,3.4724,1.8226,1.8774,1.9364,35.5543,35.5543,54091118160,57095917160,15.1643,2.6219,2.6219,3.0772,26.329,12.1517,16.0067,2.7675,2.7675,3.2482,27.7916,12.8267,0.0193,-0.0189,-0.0207,-0.1251,0.2199,0.2168,0.2166,-0.0002,0.151,0.0946,0.114,0.182,0.3836,0.0718,3.3603,0.0,0.0005,0.0675,0.0,0.0201,0.0396,0.3321,0.0273,0.1281,1.0184,0.1506,0.0,311000.0,4018675000,580626000,0.22,2019-08-01,93.16,0,0.72568884754953,0.23419996674513,0.37265751063127,0.17766558301655,0.066445382821549,0.11584338493581,0.093229709864618,1.7341984646263,0.14042731753735,0.24633447707384,0.18434257971262,2,FY2019.FQ2
2019-09-30,4187800000,1430029000,2757771000,1479051000,0,0,430865000,1909916000,847855000,0,-39620000,-39620000,-10778000,797457000,-182335000,615122000,0,0,0,615122000,0,615122000,1.06,1.06,577839000,581271000,953597000,1583105000,0,2063676000,778120000,394830000,4819731000,0,66014519000,-35810197000,30204322000,0,0,1518216000.0,36542269000,2395080000,302774000,0,1014200000,384348000,0,0,377311000,4473713000,4163115000,0,0,4922804000,1858357000,15417989000,206000000,0,15179381000,-3689000,5769073000,-26306000,0,-179000.00000009,21124280000,36542269000,31722538000,10944276000,615122000,953597000,63891000,66857000,0,-27499000,103249000,184282000,54670000,150744000.0,2061664000,-1490854000,0,-1490854000,0,0,0,0,0,0,0,34388000.0,-1456466000,0,-13835000,-13835000,0,-3235000,-166170000,770999.99999999,-182469000,-109000,422620000,-1490854000,0,0,0,-3235000,1801452000,570810000,0.2286,529909375,21124280000,21124280000,0.0827,0.1432,0.1147,0.1211,0.1215,0.1215,0.6585,0.4301,0.2024,0.1904,0.1468,0.1363,1.7298,0.578,0.245,0.1416,7.2045,3.0991,1.4586,1.3719,0.982,36.3415,36.3415,43179488940,45759498940,14.4357,2.044,2.044,2.5275,20.7114,11.3558,15.2982,2.1662,2.1662,2.6785,21.9489,12.0343,-0.1054,-0.1713,-0.2511,-0.4299,-0.4486,-0.4835,-0.4829,-0.0004,0.2424,0.0807,0.0863,0.1394,-0.0584,0.0959,0.0562,0.309,0.0019,0.0512,0.3571,0.0226,0.0425,0.0,0.0553,0.0866,1.0773,0.2716,0.4041,1151000.0,3594210000,581777000,0.288,2019-11-06,74.22,0,0.72568884754953,0.23419996674513,0.37265751063127,0.17766558301655,0.066445382821549,0.11584338493581,0.093229709864618,1.7341984646263,0.14042731753735,0.24633447707384,0.18434257971262,3,FY2019.FQ3
2019-12-31,4228015000,1421562000,2806453000,1362525000,0,0,409677000,1772202000,1034251000,0,-40566000,-40566000,-162744000,830941000,-194330000,636611000,0,0,0,636611000,0,636611000,1.1,1.1,579506000,580430000,959504000,2027972000,0,2153323000,767297000,324747000,5273339000,0,67302661000,-36938066000,30364595000,0,0,1486674000.0,37124608000,2429127000,254850000,0,1014524000,369365000,0,0,419122000,4486988000,4160919000,0,0,5046101000,1789884000,15483892000,206000000,0,15648604000,-4652000,5817475000,-26533000,0,-177999.99999988,21640716000,37124608000,31851269000,10996904000,636611000,959504000,-86145000,34402000,0,-164881000,-216624000,123424000,42680000,261429000.0,1807024000,-1367768000,0,-1367768000,0,0,0,0,0,0,0,170914000.0,-1196854000,0,-2762000,-2762000,0,-3362000,-167149000,8458000.0,-164815000,-826000,444529000,-1367768000,0,0,0,-3362000,1993755000,439256000,0.2338,646406875,21640716000,21640716000,0.0742,0.1279,0.1029,0.1104,0.1172,0.1172,0.6637,0.4715,0.2446,0.1965,0.1505,0.1038,1.7154,0.5829,0.2391,0.1394,7.2842,3.4349,1.7818,1.4315,0.7567,37.2839,37.2839,48741116640,50874063640,17.8212,2.2522,2.2522,2.8769,27.996,13.7492,18.6011,2.3508,2.3508,3.0028,29.2211,14.3509,-0.0324,-0.0616,-0.0116,-0.0573,-0.2365,-0.2869,-0.2857,0.0,0.3036,0.0815,0.094,0.1175,-0.1334,-0.0503,-0.439,0.0,0.0002,0.05,0.3929,0.024,0.0452,0.2391,0.0553,0.0529,1.1752,0.2618,0.4535,137000.0,3147471000,581914000,0.288,2020-02-27,83.76,0,0.72568884754953,0.23419996674513,0.37265751063127,0.17766558301655,0.066445382821549,0.11584338493581,0.093229709864618,1.7341984646263,0.14042731753735,0.24633447707384,0.18434257971262,4,FY2019.FQ4
2020-03-31,3475000000,1458000000,2017000000,1224000000,0,0,384000000,1608000000,409000000,0,-45000000,-45000000,-333000000,31000000,-21000000,10000000,0,0,0,10000000,0,10000000,0.02,0.02,578000000,580000000,1000000000,2906852000,0,1758965000,662398000,1162834000,6491049000,0,68695189000,-39001135000,29694054000,0,0,1448981000.0,37634084000,2892320000,200240000,0,519017000,322367000,0,0,371067000,4305011000,4703152000,0,0,5091071000,2064175000,16163409000,206000000,0,15440142000,-3305000,5852821000,-24807000,0,-175999.0,21470675000,37634084000,31143035000,11858398000,10000000,1000000000,722000000,103000000,0,239000000,1064000000,45000000,40000000,426000000.0,2585000000,-1689000000,0,-1689000000,0,0,0,0,0,0,0,158000000.0,-1531000000,0,-5000000,-5000000,0,-3000000,-167000000,0.0,-175000000,0,879000000,-1689000000,0,0,0,-3000000,1409000000,896000000,0.6774,255625000,21470675000,21470675000,0.0564,0.0978,0.0788,0.0868,0.0992,0.0992,0.5804,0.4054,0.1176,0.0089,0.0028,0.2578,1.7528,0.5705,0.2432,0.1387,5.9913,2.4293,0.7051,0.0534,1.5448,37.0184,37.0184,20906769040,22703069040,9.9104,0.9737,0.9737,1.2765,6.9006,7.6058,10.7619,1.0573,1.0573,1.3862,7.4935,8.2593,-0.1397,-0.2564,-0.2395,-0.5797,-0.9625,-0.9842,-0.9818,-0.0003,1.5592,0.0193,0.0552,0.0787,0.6078,0.1556,3.2818,0.0,0.0002,0.028,-0.1926,0.027,0.0442,0.0,0.0553,0.1039,1.5077,14.4,-0.5144,123000.0,2315317000,582037000,0.288,2020-05-07,35.92,0,0.72568884754953,0.23419996674513,0.37265751063127,0.17766558301655,0.066445382821549,0.11584338493581,0.093229709864618,1.7341984646263,0.14042731753735,0.24633447707384,0.18434257971262,1,FY2020.FQ1
2020-06-30,1211000000,1049000000,162000000,576000000,0,0,255000000,831000000,-669000000,0,-54000000,-54000000,-422000000,-1145000000,235000000,-910000000,0,0,0,-910000000,0,-910000000,-1.57,-1.57,579000000,579000000,707000000,2416501000,0,1140312000,676580000,363998000,4597391000,0,69072060000,-39838595000,29233465000,0,0,1390815000.0,35221671000,1281166000,193763000,0,21121000,252642000,0,0,405689000,2154381000,5703141000,0,0,4837896000,2138696000,14834114000,206000000,0,14312493000,-6130000,5886298000,-10928000,0,-175999.0,20387557000,35221671000,30624280000,12679733000,-910000000,707000000,469000000,-18000000,0,-1014000000,-563000000,-253000000,40000000,1067000000.0,88000000,-448000000,0,-448000000,0,0,0,0,0,0,0,-397000000.0,-845000000,0,0,0,0,479000000,-217000000,5000000.0,267000000,0,-490000000,-448000000,0,0,1484000000,-1005000000,38000000,-360000000,0.0,-418125000,20387557000,20387557000,0.0096,0.0168,0.0133,0.0148,0.0484,0.0484,0.1337,0.0313,-0.5524,-0.9454,-0.7514,-0.2972,1.7276,0.5788,0.2807,0.1625,2.0915,0.0656,-1.1554,-1.9775,-0.6217,35.2116,35.2116,29496531700,32783171700,83.8605,1.4467,1.4467,2.2513,19.0784,57.3418,93.2047,1.6079,1.6079,2.5021,21.2042,63.7311,-0.73,-0.9472,-0.9811,-1.6325,-2.051,-2.0733,-2.0753,-0.0021,1.0823,-0.0165,-0.0148,-0.0117,-0.9672,0.7133,-1.3203,0.302,0.0003,-0.0989,0.0,0.0167,0.0227,0.0,0.0836,-0.2376,2.1339,-0.2388,0.0,208000.0,3307761000,582245000,0.375,2020-08-06,50.66,0,0.72568884754953,0.23419996674513,0.37265751063127,0.17766558301655,0.066445382821549,0.11584338493581,0.093229709864618,1.7341984646263,0.14042731753735,0.24633447707384,0.18434257971262,2,FY2020.FQ2
2020-09-30,2303000000,1165000000,1138000000,648000000,0,0,339000000,987000000,151000000,0,-53000000,-53000000,-151000000,-53000000,11000000,-42000000,0,0,0,-42000000,0,-42000000,-0.07,-0.07,579000000,579000000,823000000,3065556000,0,1137528000,668541000,223432000,5095057000,0,68422543000,-39789537000,28633006000,0,0,1345955000.0,35074018000,1245029000,267245000,0,770831000,255357000,0,0,481580000,3020042000,4949902000,0,0,4804656000,2151092000,14925692000,206000000,0,14051197000,-7930000,5916213000,-16991000,0,-162999.0,20148326000,35074018000,29978961000,11905650000,-42000000,823000000,-260000000,7000000,0,243000000,-10000000,-33000000,33000000,443000000.0,1214000000,-487000000,0,-487000000,0,0,0,0,0,0,0,152000000.0,-335000000,0,-10000000,-10000000,0,-5000000,-217000000,0.0,-232000000,0,647000000,-487000000,0,0,0,-5000000,974000000,727000000,0.0,94375000,20148326000,20148326000,-0.0086,-0.015,-0.0117,-0.0131,0.028,0.028,0.4941,0.4229,0.0655,-0.023,-0.0182,0.3156,1.7407,0.5744,0.2839,0.1631,3.9775,1.6822,0.2607,-0.0915,1.2556,34.7984,34.7984,20965455240,22849801240,-68.6516,1.0405,1.0405,1.869,12.3162,-62.3862,-74.8219,1.134,1.134,2.037,13.4232,-67.9934,-0.45,-0.5873,-0.4593,-0.8219,-1.0664,-1.0682,-1.066,-0.0039,0.9364,-0.052,-0.0401,-0.0462,-0.4111,0.6733,0.2736,0.0,0.0018,-0.0469,0.0,0.0132,0.018,0.2068,0.0836,-0.0242,1.687,-5.3571,0.0,1101000.0,2655177000,583346000,0.375,2020-11-05,35.94,0,0.72568884754953,0.23419996674513,0.37265751063127,0.17766558301655,0.066445382821549,0.11584338493581,0.093229709864618,1.7341984646263,0.14042731753735,0.24633447707384,0.18434257971262,3,FY2020.FQ3
2020-12-31,2885000000,1250000000,1635000000,734000000,0,0,334000000,1068000000,567000000,0,-53000000,-53000000,-86000000,428000000,-91000000,337000000,0,0,0,337000000,0,337000000,0.58,0.58,579000000,579000000,870000000,3329000000,0,1545000000,629000000,359000000,5862000000,0,69272000000,-40673000000,28599000000,0,0,1344000000.0,35805000000,1681000000,206000000,0,750000000,326000000,0,0,497000000,3460000000,4854000000,822000000,0,4859000000,1508000000,15503000000,206000000,0,14170000000,-12000000,5945000000,-7000000,0,0.0,20302000000,35805000000,29943000000,12043000000,337000000,870000000,-464000000,31000000,0,96000000,-337000000,55000000,33000000,163000000.0,1121000000,-841000000,0,-841000000,0,0,0,0,0,0,0,204000000.0,-637000000,0,-1000000,-1000000,0,-6000000,-220000000,8000000.0,-219000000,0,265000000,-841000000,0,0,0,-6000000,1437000000,280000000,0.2126,354375000,20302000000,20302000000,-0.017,-0.0299,-0.023,-0.0261,0.0138,0.0138,0.5667,0.498,0.1965,0.1483,0.1168,0.097,1.7636,0.567,0.3165,0.1794,4.9827,2.4818,0.9792,0.7392,0.4835,35.0639,35.0639,29102685770,30627685770,-48.1036,1.4334,1.4334,2.9474,18.8611,-39.3811,-50.6242,1.5086,1.5086,3.1018,19.8494,-41.4447,-0.3176,-0.4174,-0.2792,-0.4517,-0.4849,-0.4706,-0.4727,-0.0024,0.6415,-0.0581,-0.0355,-0.0618,-0.3796,0.3851,-0.3625,0.0,0.0003,-0.0413,-0.0701,0.011,0.0152,0.0083,0.0732,-0.0534,1.6942,0.6465,6.8597,225000.0,2275000000,583571000,0.375,2021-02-25,49.87,0,0.72568884754953,0.23419996674513,0.37265751063127,0.17766558301655,0.066445382821549,0.11584338493581,0.093229709864618,1.7341984646263,0.14042731753735,0.24633447707384,0.18434257971262,4,FY2020.FQ4
