period_end_date,revenue,cogs,gross_profit,sga,rnd,special_charges,other_opex,total_opex,operating_income,interest_income,interest_expense,net_interest_income_normal,other_nonoperating_income,pretax_income,income_tax,net_income_continuing,net_income_discontinued,income_allocated_to_minority_interest,other_income_statement_items,net_income,preferred_dividends,net_income_available_to_shareholders,eps_basic,eps_diluted,shares_basic,shares_diluted,da_income_statement_supplemental,cash_and_equiv,st_investments,receivables,inventories,other_current_assets,total_current_assets,equity_and_other_investments,ppe_gross,accumulated_depreciation,ppe_net,intangible_assets,goodwill,other_lt_assets,total_assets,accounts_payable,tax_payable,current_accrued_liabilities,st_debt,current_capital_leases,current_deferred_revenue,current_deferred_tax_liability,other_current_liabilities,total_current_liabilities,lt_debt,noncurrent_capital_leases,pension_liabilities,noncurrent_deferred_revenue,other_lt_liabilities,total_liabilities,common_stock,preferred_stock,retained_earnings,aoci,apic,treasury_stock,minority_interest_liability,other_equity,total_equity,total_liabilities_and_equity,total_noncurrent_assets,total_noncurrent_liabilities,cfo_net_income,cfo_da,cfo_receivables,cfo_inventory,cfo_prepaid_expenses,cfo_other_working_capital,cfo_change_in_working_capital,cfo_deferred_tax,cfo_stock_comp,cfo_other_noncash_items,cf_cfo,cfi_ppe_purchases,cfi_ppe_sales,cfi_ppe_net,cfi_acquisitions,cfi_divestitures,cfi_acquisitions_net,cfi_investment_purchases,cfi_investment_sales,cfi_investment_net,cfi_intangibles_net,cfi_other,cf_cfi,cff_common_stock_issued,cff_common_stock_repurchased,cff_common_stock_net,cff_pfd_net,cff_debt_net,cff_dividend_paid,cff_other,cf_cff,cf_forex,cf_net_change_in_cash,capex,cff_pfd_issued,cff_pfd_repurchased,cff_debt_issued,cff_debt_repaid,ebitda,fcf,income_tax_rate,nopat,book_value,tangible_book_value,roa,roe,roic,roic_legacy,roce,rotce,gross_margin,ebitda_margin,operating_margin,pretax_margin,net_income_margin,fcf_margin,assets_to_equity,equity_to_assets,debt_to_equity,debt_to_assets,revenue_per_share,ebitda_per_share,operating_income_per_share,pretax_income_per_share,fcf_per_share,book_value_per_share,tangible_book_per_share,market_cap,enterprise_value,price_to_earnings,price_to_book,price_to_tangible_book,price_to_sales,price_to_fcf,price_to_pretax_income,enterprise_value_to_earnings,enterprise_value_to_book,enterprise_value_to_tangible_book,enterprise_value_to_sales,enterprise_value_to_fcf,enterprise_value_to_pretax_income,revenue_growth,gross_profit_growth,ebitda_growth,operating_income_growth,pretax_income_growth,net_income_growth,eps_diluted_growth,shares_diluted_growth,cash_and_equiv_growth,ppe_growth,total_assets_growth,total_equity_growth,cfo_growth,capex_growth,fcf_growth,dividends_per_share_growth,shares_eop_growth,revenue_cagr_10,eps_diluted_cagr_10,total_assets_cagr_10,total_equity_cagr_10,fcf_cagr_10,dividends_per_share_cagr_10,cf_cfo_cagr_10,current_ratio,payout_ratio,peg_ratio,shares_eop_change,net_debt,shares_eop,dividends,original_filing_date,period_end_price,preliminary,gross_margin_median,pretax_margin_median,operating_income_margin_median,fcf_margin_median,roa_median,roe_median,roic_median,assets_to_equity_median,debt_to_assets_median,debt_to_equity_median,roic_5yr_avg,fiscal_quarter_number,fiscal_quarter_key
2003-03-31,2071000000,1342000000,729000000,377000000,72000000,0,97000000,546000000,183000000,0,0,0,-32000000,151000000,-55000000,96000000,0,-12000000,0,78000000,0,78000000,0.23,0.23,339130000,339130000,97000000,77000000,0,1649000000,1004000000,365000000,3095000000,0,7352000000,-4741000000,2611000000,1574000000,0,771000000,8051000000,1429000000,0,0,332000000,0,0,0,183000000,1944000000,1699000000,0,0,66000000,1961000000,5670000000,484000000,0,6203000000,-1117000000,130000000,-3464000000,145000000,0,2381000000,8051000000,4956000000,3726000000,78000000,97000000,0,0,0,35000000,35000000,0,0,-97000000,113000000,-61000000,0,-61000000,0,0,0,0,0,0,0,1000000,-60000000,3000000,0,3000000,0,-32000000,-73000000,8000000,-94000000,1000000,-40000000,-61000000,0,0,0,-32000000,280000000,52000000,0.3642,103125000,2381000000,807000000,-0.0031,-0.0107,-0.0055,-0.0056,0.1437,0.1906,0.352,0.1352,0.0883,0.0729,0.0376,0.0251,3.3813,0.2957,0.853,0.2522,6.1068,0.8256,0.5396,0.4452,0.1533,7.0209,2.3796,7650977600,9272977600,-306.0391,3.2133,9.4807,0.9259,11.1693,294.2683,-370.9191,3.8945,11.4906,1.1222,13.5371,356.6529,0.1045,0.0626,0.0071,0.0223,0.9868,1.2941,1.3,-0.0025,0.0694,-0.0311,-0.0513,-0.2477,1.3541,-0.2978,51.0,0.0,0.0016,-0.0034,-0.0606,-0.0113,-0.0313,-0.0949,0.0072,-0.0759,1.592,0.9347,50.4571,556000.0,1954000000,339440000,0.215,2003-05-05,22.54,0,0.38588282710871,0.097211665182766,0.1090741842553,0.096778781060562,0.057560390480625,0.20403482636303,0.089461510365285,3.4051844651911,0.34803362715832,1.189498702995,0.086751866726477,1,FY2003.FQ1
2003-06-30,2304000000,1445000000,859000000,389000000,72000000,0,100000000,561000000,298000000,0,0,0,-53000000,245000000,-93000000,152000000,0,-18000000,0,152000000,0,152000000,0.45,0.44,337778000,341573000,100000000,153000000,0,1773000000,1004000000,393000000,3323000000,0,7482000000,-4872000000,2610000000,1610000000,0,783000000,8326000000,1527000000,0,0,234000000,0,0,0,289000000,2050000000,1684000000,0,0,71000000,1936000000,5741000000,484000000,0,6282000000,-1004000000,131000000,-3463000000,155000000,0,2585000000,8326000000,5003000000,3691000000,152000000,100000000,0,0,0,147000000,147000000,0,0,-100000000,299000000,-44000000,0,-44000000,0,0,0,0,0,0,0,12000000,-32000000,1000000,0,1000000,0,-114000000,-73000000,-8000000,-194000000,3000000,76000000,-44000000,0,0,0,-114000000,398000000,255000000,0.3795,186250000,2585000000,975000000,0.0576,0.19,0.1024,0.105,0.1439,0.1908,0.3728,0.1727,0.1293,0.1063,0.0659,0.1106,3.2208,0.3104,0.7419,0.2303,6.7452,1.1651,0.8724,0.7172,0.7465,7.5679,2.8544,8611592800,10142592800,18.2449,3.3313,8.8324,1.0211,12.8339,10.7376,21.4885,3.9236,10.4026,1.2027,15.1156,12.6466,0.0796,0.0618,0.0418,0.0604,1.4613,1.4405,1.4362,0.0049,0.125,-0.0239,-0.0487,-0.0958,-0.0447,0.0,-0.052,0.0,0.0,0.0113,0.0172,-0.0091,-0.0218,0.1679,0.0072,0.0148,1.6209,0.4831,10.5693,0.0,1765000000,339440000,0.215,2003-07-28,25.37,0,0.38588282710871,0.097211665182766,0.1090741842553,0.096778781060562,0.057560390480625,0.20403482636303,0.089461510365285,3.4051844651911,0.34803362715832,1.189498702995,0.086751866726477,2,FY2003.FQ2
2003-09-30,2206000000,1370000000,836000000,395000000,71000000,0,100000000,566000000,270000000,0,0,0,-31000000,239000000,-86000000,153000000,0,-11000000,0,142000000,0,142000000,0.41,0.41,342169000,342169000,100000000,283000000,0,1689000000,990000000,409000000,3371000000,0,7479000000,-4936000000,2543000000,1607000000,0,783000000,8304000000,1560000000,0,0,385000000,0,0,0,291000000,2236000000,1356000000,0,0,75000000,1979000000,5646000000,484000000,0,6350000000,-988000000,133000000,-3457000000,136000000,0,2658000000,8304000000,4933000000,3410000000,142000000,100000000,0,0,0,216000000,216000000,0,0,-100000000,358000000,-41000000,0,-41000000,0,0,0,0,0,0,0,29000000,-12000000,25000000,0,25000000,0,-170000000,-73000000,0,-218000000,2000000,130000000,-41000000,0,0,0,-170000000,370000000,317000000,0.3598,161875000,2658000000,1051000000,0.056,0.1777,0.1013,0.1064,0.1456,0.1937,0.3789,0.1677,0.1223,0.1083,0.0643,0.1436,3.1241,0.32,0.655,0.2096,6.4471,1.0813,0.789,0.6984,0.9264,7.768,3.0715,8925781830,9998781830,19.154,3.358,8.4926,1.0413,11.1294,11.2557,21.4566,3.7617,9.5135,1.1665,12.4673,12.6088,0.0667,0.0759,0.0364,0.0465,-0.0362,-0.0405,-0.0459,0.0056,0.7361,-0.0241,-0.0323,-0.0856,0.5497,0.0888,0.7043,0.0,0.0071,0.0049,0.0966,-0.0086,-0.0166,0.0,0.0023,0.2175,1.5076,0.518,1.9823,2413000.0,1458000000,341853000,0.215,2003-11-03,26.11,0,0.38588282710871,0.097211665182766,0.1090741842553,0.096778781060562,0.057560390480625,0.20403482636303,0.089461510365285,3.4051844651911,0.34803362715832,1.189498702995,0.086751866726477,3,FY2003.FQ3
2003-12-31,2175000000,1364000000,811000000,417000000,75000000,0,97000000,589000000,222000000,0,0,0,-32000000,190000000,-59000000,131000000,0,-9000000,0,122000000,0,122000000,0.36,0.35,338898000,343621000,97000000,499000000,0,1631000000,997000000,410000000,3537000000,0,7620000000,-5054000000,2566000000,1652000000,0,669000000,8424000000,1504000000,0,0,327000000,0,0,0,308000000,2139000000,1339000000,0,0,88000000,1810000000,5376000000,484000000,0,6399000000,-702000000,158000000,-3428000000,137000000,0,3048000000,8424000000,4887000000,3237000000,122000000,97000000,0,0,0,-187000000,-187000000,0,0,321000000,353000000,-71000000,0,-71000000,0,0,0,0,0,0,0,9000000,-62000000,32000000,0,32000000,0,-69000000,-75000000,25000000,-87000000,12000000,216000000,-71000000,0,0,0,-69000000,319000000,282000000,0.3105,133125000,3048000000,1396000000,0.059,0.1731,0.1052,0.1148,0.1489,0.1984,0.3728,0.1466,0.102,0.0873,0.056,0.1296,2.7637,0.3618,0.5465,0.1977,6.3296,0.9283,0.646,0.5529,0.8206,8.8702,4.0626,10942714530,11782714530,22.1512,3.5901,7.8386,1.2497,12.078,13.2638,23.8516,3.8657,8.4403,1.3456,13.0052,14.282,0.0929,0.1124,0.0924,0.1502,0.2025,0.2978,0.2678,0.0163,3.2649,-0.025,0.0713,0.3362,0.2607,0.3039,0.5842,0.0232,0.0,0.0005,-0.0255,-0.006,-0.0047,0.0036,0.0046,0.0034,1.6535,0.6197,-8.6602,0.0,1167000000,341853000,0.22,2004-02-20,32.01,0,0.38588282710871,0.097211665182766,0.1090741842553,0.096778781060562,0.057560390480625,0.20403482636303,0.089461510365285,3.4051844651911,0.34803362715832,1.189498702995,0.086751866726477,4,FY2003.FQ4
2004-03-31,2264000000,1438000000,826000000,426000000,76000000,0,97000000,599000000,227000000,0,0,0,-25000000,202000000,-69000000,133000000,0,-14000000,0,119000000,0,119000000,0.34,0.34,344928000,344928000,97000000,466000000,0,1794000000,1044000000,401000000,3705000000,0,7620000000,-5108000000,2512000000,1674000000,0,716000000,8607000000,1594000000,0,0,347000000,0,0,0,300000000,2241000000,1329000000,0,0,99000000,1850000000,5519000000,484000000,0,6439000000,-720000000,187000000,-3418000000,116000000,0,3088000000,8607000000,4902000000,3278000000,119000000,97000000,0,0,0,11000000,11000000,0,0,-97000000,130000000,-53000000,12000000,-41000000,0,0,0,-340000000,270000000,-70000000,0,-62000000,-173000000,20000000,-6000000,14000000,0,4000000,-75000000,0,-57000000,-3000000,-103000000,-41000000,0,0,4000000,0,324000000,89000000,0.3415,133125000,3088000000,1414000000,0.0628,0.1743,0.1099,0.122,0.1526,0.2034,0.3648,0.1431,0.1002,0.0892,0.0525,0.0393,2.7872,0.3587,0.5427,0.1947,6.5636,0.9393,0.6581,0.5856,0.258,8.9525,4.0994,10002909950,10865909950,18.697,3.2392,7.0741,1.1177,10.6075,11.4188,20.3101,3.5187,7.6845,1.2142,11.5227,12.404,0.0931,0.133,0.1571,0.2404,0.3377,0.5256,0.5,0.017,5.0519,-0.0379,0.069,0.2969,0.1504,0.3278,0.7115,0.0,0.0038,0.0125,0.0229,-0.0025,-0.0044,-0.1076,0.0046,-0.1005,1.6532,0.6376,8.1516,1300000.0,1210000000,343153000,0.22,2004-05-03,29.15,0,0.38588282710871,0.097211665182766,0.1090741842553,0.096778781060562,0.057560390480625,0.20403482636303,0.089461510365285,3.4051844651911,0.34803362715832,1.189498702995,0.086751866726477,1,FY2004.FQ1
2004-06-30,2429000000,1519000000,910000000,423000000,74000000,0,98000000,595000000,315000000,0,0,0,-13000000,302000000,-99000000,203000000,0,-16000000,0,187000000,0,187000000,0.54,0.54,343119000,346296000,98000000,583000000,0,1845000000,1025000000,437000000,3890000000,0,7602000000,-5149000000,2453000000,1651000000,0,654000000,8648000000,1641000000,0,0,348000000,0,0,0,396000000,2385000000,1295000000,0,0,97000000,1695000000,5472000000,484000000,0,6545000000,-759000000,199000000,-3409000000,116000000,0,3176000000,8648000000,4758000000,3087000000,179000000,98000000,0,0,0,42000000,42000000,0,0,-98000000,221000000,-57000000,27000000,-30000000,0,0,0,-1571000000,1487000000,-84000000,0,-3000000,-117000000,17000000,-2000000,15000000,0,-5000000,-78000000,0,-68000000,-3000000,33000000,-30000000,0,0,0,-5000000,413000000,191000000,0.3278,186875000,3176000000,1525000000,0.066,0.1819,0.1161,0.13,0.1552,0.2068,0.3746,0.17,0.1296,0.1243,0.0769,0.0786,2.7229,0.3672,0.5173,0.1899,7.0142,1.1926,0.9096,0.872,0.5515,9.1713,4.4037,10723531250,11435531250,18.8132,3.3764,7.0318,1.1817,12.1996,11.4936,20.0623,3.6006,7.4987,1.2602,13.0097,12.2567,0.0542,0.0593,0.0376,0.057,0.2326,0.2302,0.2134,0.0138,2.8104,-0.0601,0.0386,0.2286,-0.2608,0.3181,-0.2509,0.0227,0.0,0.0244,0.0822,0.0022,-0.0008,-0.0166,0.0069,-0.0281,1.631,0.4166,2.2876,0.0,1060000000,343153000,0.225,2004-07-26,31.25,0,0.38588282710871,0.097211665182766,0.1090741842553,0.096778781060562,0.057560390480625,0.20403482636303,0.089461510365285,3.4051844651911,0.34803362715832,1.189498702995,0.086751866726477,2,FY2004.FQ2
2004-09-30,2409000000,1516000000,893000000,422000000,74000000,0,96000000,592000000,301000000,0,0,0,-7000000,294000000,-82000000,212000000,0,-18000000,0,194000000,0,194000000,0.56,0.56,343363000,346429000,96000000,561000000,0,1809000000,1010000000,451000000,3831000000,0,7668000000,-5248000000,2420000000,1660000000,0,688000000,8599000000,1663000000,0,0,165000000,0,0,0,394000000,2222000000,1200000000,0,0,102000000,1706000000,5230000000,484000000,0,6670000000,-699000000,205000000,-3405000000,114000000,0,3369000000,8599000000,4768000000,3008000000,202000000,96000000,0,0,0,159000000,159000000,0,0,-96000000,361000000,-47000000,0,-47000000,0,0,0,0,0,0,0,169000000,122000000,15000000,0,15000000,0,-301000000,-77000000,0,-363000000,12000000,132000000,-47000000,0,0,0,-301000000,397000000,314000000,0.2789,176875000,3369000000,1709000000,0.0721,0.19,0.1271,0.1439,0.1619,0.2164,0.3706,0.1647,0.1249,0.122,0.0805,0.1303,2.5523,0.3917,0.4051,0.1587,6.9538,1.1459,0.8688,0.8486,0.9063,9.7249,4.9331,10540282560,11179282560,16.9457,3.1286,6.1675,1.1361,12.0322,10.6683,17.9731,3.3182,6.5414,1.205,12.7617,11.315,0.092,0.0681,0.0729,0.1148,0.2301,0.3661,0.3493,0.0124,0.9823,-0.0483,0.0355,0.2674,0.0083,-0.1463,-0.0094,0.0,0.0024,0.0253,0.188,0.0013,0.0062,0.777,0.0069,0.2235,1.7241,0.4017,0.9013,851000.0,804000000,344004000,0.225,2004-11-01,30.64,0,0.38588282710871,0.097211665182766,0.1090741842553,0.096778781060562,0.057560390480625,0.20403482636303,0.089461510365285,3.4051844651911,0.34803362715832,1.189498702995,0.086751866726477,3,FY2004.FQ3
2004-12-31,2411000000,1526000000,885000000,444000000,79000000,0,97000000,620000000,265000000,0,0,0,0,265000000,-72000000,193000000,0,-10000000,0,183000000,0,183000000,0.53,0.53,341936000,345229000,97000000,659000000,50000000,1797000000,1076000000,472000000,4054000000,0,7855000000,-5384000000,2471000000,1713000000,0,694000000,8932000000,1651000000,0,0,166000000,0,0,0,404000000,2221000000,1184000000,0,0,145000000,1714000000,5264000000,484000000,0,6776000000,-482000000,249000000,-3455000000,96000000,0,3668000000,8932000000,4878000000,3043000000,183000000,97000000,0,0,0,-267000000,-267000000,0,0,293000000,306000000,-87000000,0,-87000000,0,0,0,0,0,0,0,-5000000,-92000000,69000000,-92000000,-23000000,0,-10000000,-77000000,13000000,-97000000,31000000,148000000,-87000000,0,0,0,-10000000,362000000,219000000,0.2716,159375000,3668000000,1955000000,0.0779,0.1941,0.1371,0.1562,0.1651,0.2205,0.367,0.1501,0.1099,0.1099,0.0759,0.0908,2.4351,0.4106,0.368,0.1511,6.9837,1.0485,0.7676,0.7676,0.6343,10.6248,5.6629,11723656320,12198656320,17.1649,3.1961,5.9967,1.2323,14.4202,11.0288,17.8604,3.3256,6.2397,1.2823,15.0044,11.4756,0.1085,0.0912,0.1347,0.1936,0.3947,0.5,0.4929,0.0046,0.3206,-0.037,0.0603,0.2034,-0.1331,-0.2253,-0.2234,0.0,0.0,0.0122,0.0,0.002,0.0252,-0.0203,0.0069,-0.0022,1.8253,0.4245,0.0,0.0,691000000,344004000,0.225,2005-02-17,34.08,0,0.38588282710871,0.097211665182766,0.1090741842553,0.096778781060562,0.057560390480625,0.20403482636303,0.089461510365285,3.4051844651911,0.34803362715832,1.189498702995,0.086751866726477,4,FY2004.FQ4
2005-03-31,2493000000,1558000000,935000000,450000000,77000000,0,95000000,622000000,313000000,0,0,0,-168000000,145000000,-34000000,111000000,0,-16000000,0,95000000,0,95000000,0.27,0.27,345455000,345455000,95000000,640000000,37000000,1920000000,1130000000,482000000,4209000000,0,7812000000,-5400000000,2412000000,1680000000,0,721000000,9022000000,1751000000,0,0,161000000,0,0,0,409000000,2321000000,1137000000,0,0,140000000,1760000000,5358000000,484000000,0,6793000000,-556000000,326000000,-3498000000,115000000,0,3664000000,9022000000,4813000000,3037000000,95000000,95000000,0,0,0,45000000,45000000,0,0,-95000000,140000000,-69000000,11000000,-58000000,0,0,0,-1282000000,1294000000,12000000,0,0,-46000000,123000000,-110000000,13000000,0,-35000000,-78000000,0,-100000000,-13000000,-19000000,-58000000,0,0,0,-35000000,408000000,82000000,0.2344,185625000,3664000000,1984000000,0.0734,0.1797,0.1293,0.1482,0.1738,0.2308,0.375,0.1636,0.1255,0.0581,0.0381,0.0328,2.4623,0.4061,0.3542,0.1438,7.2165,1.181,0.906,0.4197,0.2373,10.6063,5.7431,12277230480,12737230480,18.63,3.3507,6.1881,1.2602,15.2322,12.204,19.3281,3.4763,6.4199,1.3074,15.803,12.6612,0.1011,0.1319,0.2592,0.3788,-0.2821,-0.2016,-0.2028,0.0015,0.3733,-0.0398,0.0482,0.1865,0.0769,-0.4146,-0.0786,0.0,-0.0019,0.0188,-0.0448,0.005,0.0234,-0.0786,0.0045,-0.0488,1.8134,0.8181,-4.1564,-681000.0,658000000,343323000,0.225,2005-05-02,35.76,0,0.38588282710871,0.097211665182766,0.1090741842553,0.096778781060562,0.057560390480625,0.20403482636303,0.089461510365285,3.4051844651911,0.34803362715832,1.189498702995,0.086751866726477,1,FY2005.FQ1
2005-06-30,2656000000,1650000000,1006000000,461000000,76000000,0,93000000,630000000,376000000,0,0,0,-16000000,360000000,-111000000,249000000,0,-18000000,0,231000000,0,231000000,0.67,0.67,342222000,344776000,93000000,470000000,0,1987000000,1105000000,495000000,4057000000,0,7749000000,-5393000000,2356000000,1654000000,0,723000000,8790000000,1590000000,0,0,164000000,0,0,0,479000000,2233000000,1188000000,0,0,131000000,1704000000,5256000000,484000000,0,6944000000,-662000000,339000000,-3692000000,121000000,0,3534000000,8790000000,4733000000,3023000000,231000000,93000000,0,0,0,-101000000,-101000000,0,0,-93000000,130000000,-61000000,9000000,-52000000,0,0,0,-590000000,628000000,38000000,0,-25000000,-39000000,13000000,-202000000,-189000000,0,29000000,-81000000,0,-241000000,-20000000,-170000000,-52000000,0,0,29000000,0,469000000,78000000,0.3083,223750000,3534000000,1880000000,0.0789,0.1953,0.1394,0.1566,0.1847,0.2449,0.3787,0.1765,0.1415,0.1355,0.0869,0.0293,2.4872,0.402,0.3825,0.1538,7.7035,1.3603,1.0905,1.0441,0.2262,10.2501,5.4528,10662610200,11380610200,15.1672,3.0171,5.6716,1.0695,15.3861,10.0212,16.1886,3.2203,6.0535,1.1415,16.4222,10.696,0.0934,0.1054,0.1355,0.1936,0.192,0.2352,0.2407,-0.0043,-0.1938,-0.0395,0.0164,0.1127,-0.4117,-0.7333,-0.5916,0.0444,-0.0102,0.0292,0.0911,0.0112,0.0447,-0.0791,0.0089,-0.0738,1.8168,0.3507,1.6636,-3533000.0,882000000,339790000,0.235,2005-08-01,31.38,0,0.38588282710871,0.097211665182766,0.1090741842553,0.096778781060562,0.057560390480625,0.20403482636303,0.089461510365285,3.4051844651911,0.34803362715832,1.189498702995,0.086751866726477,2,FY2005.FQ2
2005-09-30,2547000000,1614000000,933000000,437000000,77000000,0,92000000,606000000,327000000,0,0,0,-72000000,255000000,-77000000,178000000,0,-21000000,0,157000000,0,157000000,0.46,0.46,337634000,341304000,92000000,489000000,0,1968000000,1116000000,500000000,4073000000,0,7809000000,-5473000000,2336000000,1650000000,0,735000000,8794000000,1789000000,0,0,72000000,0,0,0,474000000,2335000000,1181000000,0,0,128000000,1702000000,5346000000,484000000,0,7021000000,-655000000,346000000,-3878000000,130000000,0,3448000000,8794000000,4721000000,3011000000,157000000,92000000,0,0,0,289000000,289000000,0,0,-92000000,446000000,-64000000,5000000,-59000000,0,0,0,0,0,0,0,-8000000,-67000000,2000000,-189000000,-187000000,0,-95000000,-79000000,0,-361000000,1000000,19000000,-59000000,0,0,0,-95000000,419000000,387000000,0.3019,191250000,3448000000,1798000000,0.0757,0.1907,0.1353,0.15,0.1933,0.2575,0.3663,0.1645,0.1283,0.1001,0.0616,0.1519,2.5504,0.392,0.3633,0.1424,7.4625,1.2276,0.958,0.7471,1.1338,10.1024,5.268,9784428000,10476428000,14.6913,2.8377,5.4418,0.968,12.7734,9.5457,15.7303,3.0384,5.8267,1.0365,13.6767,10.2209,0.0572,0.0447,0.0554,0.0863,-0.1326,-0.1907,-0.1785,-0.0147,-0.1283,-0.0347,0.0226,0.0234,0.2354,-0.2553,0.2324,0.0,-0.0271,0.0209,0.0717,0.0088,0.0377,0.2222,0.0089,0.1471,1.7443,0.5108,2.0469,-9235000.0,764000000,330555000,0.235,2005-10-31,29.6,0,0.38588282710871,0.097211665182766,0.1090741842553,0.096778781060562,0.057560390480625,0.20403482636303,0.089461510365285,3.4051844651911,0.34803362715832,1.189498702995,0.086751866726477,3,FY2005.FQ3
2005-12-30,1332000000,775000000,557000000,280000000,64000000,0,45000000,389000000,168000000,0,0,0,-48000000,120000000,-33000000,87000000,0,-12000000,0,113000000,0,113000000,0.34,0.34,334376000,334872000,45000000,466000000,0,1871000000,1119000000,563000000,4019000000,0,7802000000,-5498000000,2304000000,488000000,1166000000,704000000,8681000000,927000000,0,849000000,101000000,0,0,0,472000000,2349000000,1169000000,0,0,90000000,1912000000,5520000000,484000000,0,7057000000,-856000000,352000000,-3984000000,108000000,0,3161000000,8681000000,4662000000,3171000000,113000000,45000000,0,0,0,-261000000,-261000000,0,0,452000000,349000000,-94000000,6000000,-88000000,0,0,0,-118000000,118000000,0,0,-125000000,-213000000,10000000,-106000000,-96000000,0,9000000,-78000000,10000000,-155000000,-4000000,-23000000,-88000000,0,0,9000000,0,213000000,261000000,0.275,121250000,3161000000,1507000000,0.0682,0.1803,0.1272,0.1416,0.1826,0.2451,0.4181,0.1599,0.1261,0.09,0.0848,0.1959,2.7462,0.3641,0.4017,0.1462,3.9776,0.636,0.5016,0.3583,0.7794,9.4394,4.5002,9569567250,10272567250,16.0563,3.0273,6.35,1.0599,11.8435,10.8745,17.2358,3.2497,6.8165,1.1378,12.7135,11.6733,-0.4475,-0.3706,-0.4116,-0.366,-0.5471,-0.3825,-0.3584,-0.03,-0.2928,-0.0675,-0.0281,-0.1382,0.1405,-0.0114,0.1917,0.0,0.0,-0.0533,-0.0265,0.0041,0.0203,0.0023,0.0089,0.0155,1.7109,0.6911,-6.0466,0.0,804000000,330555000,0.235,2006-02-16,28.95,0,0.38588282710871,0.097211665182766,0.1090741842553,0.096778781060562,0.057560390480625,0.20403482636303,0.089461510365285,3.4051844651911,0.34803362715832,1.189498702995,0.086751866726477,4,FY2005.FQ4
2006-03-31,2638000000,1691000000,947000000,460000000,75000000,0,91000000,626000000,321000000,0,0,0,-52000000,269000000,-66000000,203000000,0,-19000000,0,184000000,0,184000000,0.55,0.55,331532000,331532000,91000000,416000000,0,2038000000,1195000000,525000000,4174000000,0,7865000000,-5582000000,2283000000,488000000,1177000000,796000000,8918000000,1778000000,0,0,86000000,0,0,0,480000000,2344000000,1174000000,0,0,92000000,1967000000,5577000000,484000000,0,7163000000,-818000000,362000000,-3977000000,127000000,0,3341000000,8918000000,4744000000,3233000000,184000000,91000000,0,0,0,-149000000,-149000000,0,0,-91000000,35000000,-79000000,22000000,-57000000,0,0,0,-101000000,101000000,0,0,50000000,-7000000,8000000,0,8000000,0,-12000000,-78000000,0,-82000000,4000000,-50000000,-57000000,0,0,0,-12000000,412000000,-22000000,0.2453,188750000,3341000000,1676000000,0.0778,0.2107,0.1478,0.1633,0.182,0.2439,0.3589,0.1561,0.1216,0.1019,0.0697,-0.0083,2.6692,0.3746,0.3771,0.1412,7.9569,1.2427,0.9682,0.8113,-0.0663,10.0774,5.0553,10524225510,11282225510,15.3638,3.15,6.2793,1.1473,14.9491,10.4822,16.4704,3.3769,6.7316,1.2299,16.0258,11.2372,0.0581,0.0128,0.0098,0.0255,0.8551,0.9368,1.0181,-0.0403,-0.35,-0.0534,-0.0115,-0.0881,-0.75,0.0172,-1.2682,0.0,0.0021,0.018,0.0294,0.0071,0.0231,0.0,0.0089,-0.2074,1.7807,0.4234,5.2088,708000.0,844000000,331263000,0.235,2006-05-10,31.77,0,0.38588282710871,0.097211665182766,0.1090741842553,0.096778781060562,0.057560390480625,0.20403482636303,0.089461510365285,3.4051844651911,0.34803362715832,1.189498702995,0.086751866726477,1,FY2006.FQ1
2006-06-30,2824000000,1747000000,1077000000,495000000,78000000,0,94000000,667000000,410000000,0,0,0,-5000000,405000000,-107000000,298000000,0,-18000000,0,280000000,0,280000000,0.84,0.84,331361000,333333000,94000000,419000000,0,2248000000,1273000000,577000000,4517000000,0,8058000000,-5694000000,2364000000,553000000,1244000000,824000000,9502000000,1939000000,0,0,139000000,0,0,0,560000000,2638000000,1196000000,0,0,122000000,1940000000,5896000000,484000000,0,7364000000,-738000000,380000000,-4013000000,129000000,0,3606000000,9502000000,4985000000,3258000000,280000000,94000000,0,0,0,18000000,18000000,0,0,-94000000,298000000,-72000000,11000000,-61000000,0,0,0,-415000000,415000000,0,0,-121000000,-182000000,21000000,-48000000,-27000000,0,-18000000,-79000000,0,-124000000,11000000,3000000,-61000000,0,0,0,-18000000,504000000,237000000,0.2641,245000000,3606000000,1809000000,0.0796,0.2113,0.1498,0.1637,0.1794,0.2403,0.3813,0.1784,0.1451,0.1434,0.0991,0.0839,2.635,0.3794,0.3702,0.1404,8.472,1.512,1.23,1.215,0.711,10.818,5.427,10901484000,11678484000,14.8521,3.0231,6.0262,1.167,12.632,10.3922,15.9107,3.2386,6.4557,1.2502,13.5324,11.1329,0.0632,0.0705,0.0746,0.0904,0.125,0.2121,0.2537,-0.0331,-0.1085,0.0033,0.081,0.0203,1.2923,-0.173,2.0384,0.0212,-0.0027,0.0264,0.0899,0.0121,0.0169,-0.0172,0.0087,-0.0167,1.7122,0.2857,1.6512,-915000.0,916000000,330348000,0.24,2006-08-01,33.0,0,0.38588282710871,0.097211665182766,0.1090741842553,0.096778781060562,0.057560390480625,0.20403482636303,0.089461510365285,3.4051844651911,0.34803362715832,1.189498702995,0.086751866726477,2,FY2006.FQ2
2006-09-29,2802000000,1575000000,1227000000,462000000,76000000,0,88000000,626000000,601000000,0,0,0,-500000000,101000000,-14000000,87000000,20000000,-17000000,0,90000000,0,90000000,0.27,0.27,333333000,333333000,88000000,316000000,0,2240000000,1377000000,614000000,4547000000,0,8173000000,-5761000000,2412000000,628000000,1319000000,867000000,9773000000,2075000000,0,0,118000000,0,0,0,561000000,2754000000,1195000000,0,0,156000000,2055000000,6160000000,484000000,0,7375000000,-758000000,392000000,-4010000000,130000000,0,3613000000,9773000000,5226000000,3406000000,90000000,88000000,0,0,0,144000000,144000000,0,0,10000000,332000000,-67000000,0,-67000000,0,0,0,-345000000,345000000,0,0,-274000000,-341000000,7000000,-3000000,4000000,0,-28000000,-80000000,0,-104000000,0,-113000000,-67000000,0,0,0,-28000000,689000000,265000000,0.1386,377500000,3613000000,1666000000,0.0692,0.1847,0.1317,0.142,0.2121,0.2885,0.4379,0.2458,0.2144,0.036,0.0321,0.0945,2.7049,0.3696,0.3634,0.1343,8.406,2.067,1.803,0.303,0.795,10.839,4.998,11079871920,11958871920,16.6115,3.0666,6.6505,1.1546,14.9525,12.3797,17.9293,3.3099,7.1781,1.2462,16.1388,13.3618,0.1001,0.3151,0.6443,0.8379,-0.6039,-0.4267,-0.413,-0.0233,-0.3537,0.0325,0.1113,0.0478,-0.2556,-0.1355,-0.3152,0.0,0.0,0.0215,-0.0242,0.0127,0.0158,0.1152,0.0087,0.0982,1.651,0.8888,-6.8602,0.0,997000000,330348000,0.24,2006-10-31,33.54,0,0.38588282710871,0.097211665182766,0.1090741842553,0.096778781060562,0.057560390480625,0.20403482636303,0.089461510365285,3.4051844651911,0.34803362715832,1.189498702995,0.086751866726477,3,FY2006.FQ3
2006-12-29,2500000000,1596000000,904000000,487000000,84000000,0,88000000,659000000,245000000,0,0,0,-5000000,240000000,-74000000,166000000,7000000,-16000000,0,157000000,0,157000000,0.47,0.47,330665000,333886000,88000000,443000000,0,2016000000,1203000000,1193000000,4855000000,0,7374000000,-5067000000,2307000000,584000000,1337000000,984000000,10067000000,1991000000,0,0,140000000,0,0,0,685000000,2816000000,1155000000,0,0,136000000,2559000000,6666000000,484000000,0,7453000000,-964000000,408000000,-4101000000,121000000,0,3401000000,10067000000,5212000000,3850000000,157000000,88000000,0,0,0,-13000000,-13000000,0,0,233000000,465000000,-154000000,0,-154000000,0,0,0,-102000000,102000000,0,0,22000000,-132000000,31000000,-102000000,-71000000,0,-37000000,-79000000,-4000000,-191000000,7000000,149000000,-154000000,0,0,0,-37000000,333000000,311000000,0.3083,147500000,3401000000,1480000000,0.0716,0.2027,0.144,0.156,0.217,0.2958,0.3616,0.1332,0.098,0.096,0.0628,0.1244,2.96,0.3378,0.3807,0.1286,7.4875,0.9973,0.7337,0.7188,0.9314,10.1861,4.4326,10537346040,11249346040,14.8204,3.0983,7.1198,0.9789,13.3215,10.3816,15.8218,3.3076,7.6009,1.045,14.2216,11.083,0.8768,0.6229,0.5633,0.4583,1.0,0.3893,0.3823,-0.0029,-0.0493,0.0013,0.1596,0.0759,0.3323,-0.75,0.1915,0.0,-0.0066,0.0028,-0.0137,0.0153,0.0068,0.0499,0.0064,0.0772,1.724,0.5106,-10.749,-2184000.0,852000000,328164000,0.24,2007-02-21,32.11,0,0.38588282710871,0.097211665182766,0.1090741842553,0.096778781060562,0.057560390480625,0.20403482636303,0.089461510365285,3.4051844651911,0.34803362715832,1.189498702995,0.086751866726477,4,FY2006.FQ4
2007-03-30,2632000000,1677000000,955000000,502000000,81000000,0,92000000,675000000,280000000,0,0,0,0,280000000,-57000000,223000000,18000000,-18000000,0,194000000,0,194000000,0.59,0.58,328814000,331624000,92000000,182000000,0,2434000000,1459000000,654000000,4729000000,0,8445000000,-5933000000,2512000000,645000000,1447000000,1012000000,10345000000,2078000000,0,0,306000000,0,0,0,565000000,2949000000,1158000000,0,0,144000000,2493000000,6744000000,484000000,0,7576000000,-939000000,442000000,-4127000000,165000000,0,3601000000,10345000000,5616000000,3795000000,176000000,92000000,0,0,0,-302000000,-302000000,0,0,-66000000,-100000000,-94000000,0,-94000000,0,0,0,0,0,0,0,-166000000,-260000000,59000000,-56000000,3000000,0,163000000,-82000000,0,84000000,1000000,-275000000,-94000000,0,0,163000000,0,372000000,-194000000,0.2035,156875000,3601000000,1509000000,0.0706,0.2059,0.1435,0.153,0.2035,0.2772,0.3628,0.1413,0.1063,0.1063,0.0737,-0.0737,2.8728,0.348,0.4065,0.1415,7.9366,1.1217,0.8443,0.8443,-0.5849,10.8586,4.5503,11538246240,12514246240,16.0031,3.2041,7.6462,1.0725,18.6401,11.2458,17.3567,3.4752,8.293,1.1632,20.2168,12.1971,-0.0022,0.0084,-0.097,-0.1277,0.0408,0.0543,0.054,0.0002,-0.5625,0.1003,0.16,0.0778,-3.8571,-0.6491,-7.8181,0.0416,0.0,0.0088,0.0043,0.0186,0.0066,0.0,0.0105,0.0,1.6035,0.4273,36.5613,0.0,1282000000,328164000,0.25,2007-04-30,35.16,0,0.38588282710871,0.097211665182766,0.1090741842553,0.096778781060562,0.057560390480625,0.20403482636303,0.089461510365285,3.4051844651911,0.34803362715832,1.189498702995,0.086751866726477,1,FY2007.FQ1
2007-06-29,3155000000,2001000000,1154000000,564000000,87000000,0,103000000,754000000,400000000,0,0,0,-2000000,398000000,-125000000,273000000,-17000000,-23000000,0,249000000,0,249000000,0.75,0.75,329600000,329600000,103000000,197000000,0,2583000000,1480000000,691000000,4951000000,0,8580000000,-6045000000,2535000000,637000000,1466000000,1095000000,10684000000,2145000000,0,0,216000000,0,0,0,601000000,2962000000,1151000000,0,0,146000000,2556000000,6815000000,484000000,0,7742000000,-838000000,497000000,-4200000000,184000000,0,3869000000,10684000000,5733000000,3853000000,266000000,103000000,0,0,0,86000000,86000000,0,0,-130000000,325000000,-90000000,0,-90000000,0,0,0,0,0,0,0,-24000000,-114000000,80000000,-121000000,-41000000,0,-77000000,-83000000,0,-201000000,3000000,13000000,-90000000,0,0,0,-77000000,503000000,235000000,0.314,235000000,3869000000,1766000000,0.0656,0.1847,0.1295,0.1343,0.1951,0.2666,0.3657,0.1594,0.1267,0.1261,0.0789,0.0744,2.7614,0.3621,0.3533,0.1279,9.5722,1.526,1.2135,1.2075,0.7129,11.7384,5.358,12489921840,13443921840,18.1013,3.2282,7.0724,1.1263,20.2429,12.257,19.4839,3.4747,7.6126,1.2123,21.7891,13.1932,0.1172,0.0714,-0.0019,-0.0243,-0.0172,-0.1107,-0.1071,-0.0111,-0.5298,0.0723,0.1243,0.0729,0.0906,-0.4754,-0.0084,0.0,0.0,0.0272,0.0353,0.018,0.0053,0.007,0.0105,0.006,1.6715,0.3333,5.1235,0.0,1170000000,328164000,0.25,2007-07-30,38.06,0,0.38588282710871,0.097211665182766,0.1090741842553,0.096778781060562,0.057560390480625,0.20403482636303,0.089461510365285,3.4051844651911,0.34803362715832,1.189498702995,0.086751866726477,2,FY2007.FQ2
2007-09-28,3073000000,1947000000,1126000000,595000000,86000000,0,104000000,785000000,341000000,0,0,0,-5000000,336000000,-105000000,231000000,-24000000,-18000000,0,189000000,0,189000000,0.58,0.57,328800000,328800000,104000000,227000000,0,2497000000,1385000000,1307000000,5416000000,0,7755000000,-5364000000,2391000000,629000000,1462000000,1009000000,10907000000,2111000000,0,0,178000000,0,0,0,743000000,3032000000,1181000000,0,0,156000000,2395000000,6764000000,484000000,0,7848000000,-596000000,534000000,-4267000000,140000000,0,4143000000,10907000000,5491000000,3732000000,192000000,104000000,0,0,0,83000000,83000000,0,0,-57000000,322000000,-61000000,0,-61000000,0,0,0,0,0,0,0,-51000000,-112000000,48000000,-93000000,-45000000,0,-40000000,-85000000,0,-170000000,6000000,46000000,-61000000,0,0,0,-40000000,445000000,261000000,0.3125,186875000,4143000000,2052000000,0.073,0.1969,0.1426,0.1483,0.1583,0.2146,0.3664,0.1448,0.1109,0.1093,0.0615,0.0849,2.6326,0.3798,0.328,0.1245,9.3461,1.3534,1.0371,1.0218,0.7937,12.6003,6.2408,12376765780,13330765780,15.6866,2.9873,6.0315,1.0895,20.1904,9.8698,16.8957,3.2176,6.4964,1.1734,21.7467,10.6305,0.0967,-0.0823,-0.3541,-0.4326,2.3267,1.1,1.1296,-0.0135,-0.2816,-0.0087,0.116,0.1466,-0.0301,0.0895,-0.015,0.04,-0.0017,0.0211,0.0765,0.0191,0.0123,0.1227,0.0145,0.0868,1.7862,0.4521,2.0492,-563000.0,1132000000,327601000,0.26,2007-10-29,37.78,0,0.38588282710871,0.097211665182766,0.1090741842553,0.096778781060562,0.057560390480625,0.20403482636303,0.089461510365285,3.4051844651911,0.34803362715832,1.189498702995,0.086751866726477,3,FY2007.FQ3
2007-12-31,3104000000,2017000000,1087000000,614000000,92000000,0,120000000,826000000,261000000,0,0,0,44000000,305000000,-87000000,218000000,-1000000,-17000000,0,200000000,0,200000000,0.61,0.6,328400000,328400000,96000000,526000000,0,2522000000,1532000000,2361000000,6941000000,370000000,8694000000,-6116000000,2578000000,614000000,1507000000,619000000,12629000000,1182000000,49000000,558000000,1819000000,0,0,0,1024000000,4632000000,1201000000,0,997000000,164000000,1484000000,8478000000,484000000,0,7963000000,-582000000,553000000,-4267000000,0,0,4151000000,12629000000,5688000000,3846000000,222000000,96000000,0,0,0,-196000000,-196000000,0,0,327000000,449000000,-119000000,0,-119000000,0,0,0,0,0,0,0,-1602000000,-1721000000,7000000,-4000000,3000000,0,1652000000,-85000000,0,1570000000,1000000,299000000,-119000000,0,0,1652000000,0,357000000,330000000,0.2852,151875000,4151000000,2030000000,0.0707,0.2006,0.1298,0.1379,0.1434,0.1877,0.3501,0.115,0.084,0.0982,0.0644,0.1063,3.0423,0.3286,0.7275,0.2391,9.4518,1.087,0.7947,0.9287,1.0048,12.64,6.1814,11505347120,12180347120,13.8285,2.7717,5.6676,0.9616,18.2046,8.7227,14.6398,2.9343,6.0001,1.018,19.2727,9.2345,0.2416,0.2024,0.072,0.0653,0.2708,0.2738,0.2872,-0.0164,0.1873,0.1174,0.2544,0.2205,-0.0344,0.2272,0.061,0.0,0.0,0.0157,-0.0101,0.0369,0.0162,0.1551,0.0101,0.1319,1.4984,0.4297,-13.6201,0.0,2494000000,327601000,0.26,2008-02-21,35.12,0,0.38588282710871,0.097211665182766,0.1090741842553,0.096778781060562,0.057560390480625,0.20403482636303,0.089461510365285,3.4051844651911,0.34803362715832,1.189498702995,0.086751866726477,4,FY2007.FQ4
2008-03-31,3962000000,2596000000,1366000000,871000000,112000000,0,141000000,1124000000,242000000,0,-64000000,-64000000,5000000,183000000,-57000000,126000000,0,-26000000,0,100000000,0,100000000,0.3,0.3,329000000,331200000,141000000,298000000,0,3433000000,1977000000,1241000000,6949000000,0,8816000000,-5563000000,3253000000,1749000000,2824000000,1124000000,15899000000,3003000000,0,0,805000000,0,0,0,684000000,4492000000,3639000000,0,0,616000000,2599000000,11346000000,484000000,0,7976000000,-378000000,554000000,-4262000000,179000000,0,4553000000,15899000000,8950000000,6854000000,126000000,141000000,0,0,0,0,0,0,0,-218000000,49000000,-62000000,14000000,-48000000,-1571000000,0,-1571000000,-3000000,1700000000,1697000000,0,0,78000000,7000000,-7000000,0,0,-288000000,-85000000,0,-373000000,18000000,-228000000,-48000000,0,0,2979000000,-3267000000,383000000,1000000,0.3114,135000000,4553000000,-20000000,0.0517,0.1695,0.0902,0.095,0.1129,0.1622,0.3447,0.0966,0.061,0.0461,0.0252,0.0002,3.4919,0.2863,0.976,0.2795,11.9625,1.1564,0.7306,0.5525,0.003,13.7469,-0.0603,9913206260,13254206260,13.4325,2.1772,-495.6603,0.7456,11.9869,8.1122,17.9596,2.911,-662.7103,0.997,16.0268,10.8463,0.5053,0.4303,0.0295,-0.1357,-0.3464,-0.4845,-0.4786,-0.0012,0.6373,0.2949,0.5368,0.2643,1.49,0.4893,1.0051,0.0,0.0,0.0451,-0.0402,0.061,0.0281,-0.4489,0.0101,-0.1981,1.5469,0.8524,-3.3365,0.0,4146000000,327601000,0.26,2008-04-28,30.26,0,0.38588282710871,0.097211665182766,0.1090741842553,0.096778781060562,0.057560390480625,0.20403482636303,0.089461510365285,3.4051844651911,0.34803362715832,1.189498702995,0.086751866726477,1,FY2008.FQ1
2008-06-30,4474000000,2829000000,1645000000,936000000,118000000,0,169000000,1223000000,422000000,0,-65000000,-65000000,37000000,394000000,-116000000,278000000,0,-28000000,0,250000000,0,250000000,0.76,0.75,329200000,331200000,165000000,266000000,0,3907000000,2124000000,794000000,7091000000,0,9736000000,-6373000000,3363000000,1725000000,2874000000,1154000000,16207000000,3316000000,0,0,816000000,0,0,0,613000000,4745000000,3440000000,0,0,618000000,2586000000,11389000000,484000000,0,8141000000,-300000000,561000000,-4262000000,194000000,0,4818000000,16207000000,9116000000,6644000000,278000000,165000000,0,0,0,0,0,0,0,-90000000,353000000,-84000000,15000000,-69000000,-13000000,0,-13000000,0,0,0,0,0,-82000000,1000000,1000000,2000000,0,-178000000,-129000000,0,-305000000,2000000,-32000000,-69000000,0,0,36000000,-214000000,587000000,284000000,0.2944,246250000,4818000000,219000000,0.046,0.1577,0.0801,0.0826,0.1033,0.1652,0.3676,0.1312,0.0943,0.088,0.0558,0.0634,3.3638,0.2972,0.8833,0.2626,13.5084,1.7723,1.2741,1.1896,0.8574,14.5471,0.6612,9398872690,12572872690,12.7183,1.9507,42.9172,0.6431,10.7293,7.7166,17.0133,2.6095,57.4103,0.8603,14.3525,10.3225,0.418,0.4254,0.1669,0.055,-0.01,0.004,0.0066,0.0048,0.3502,0.3266,0.5169,0.2452,0.0861,0.2333,0.2085,0.0,0.0,0.1288,0.083,0.0644,0.043,0.0084,0.0101,0.0011,1.4944,0.3443,1.5314,0.0,3990000000,327601000,0.26,2008-07-28,28.69,0,0.38588282710871,0.097211665182766,0.1090741842553,0.096778781060562,0.057560390480625,0.20403482636303,0.089461510365285,3.4051844651911,0.34803362715832,1.189498702995,0.086751866726477,2,FY2008.FQ2
2008-09-30,4225000000,2701000000,1524000000,877000000,114000000,0,144000000,1135000000,389000000,0,-62000000,-62000000,-124000000,203000000,-65000000,138000000,0,-21000000,0,117000000,0,117000000,0.35,0.35,329400000,331200000,139000000,516000000,0,3453000000,1818000000,792000000,6579000000,0,8099000000,-5266000000,2833000000,1561000000,2711000000,1362000000,15046000000,3128000000,0,0,726000000,0,0,0,615000000,4469000000,3221000000,0,0,495000000,2491000000,10676000000,484000000,0,8172000000,-766000000,573000000,-4259000000,166000000,0,4370000000,15046000000,8467000000,6207000000,138000000,139000000,0,0,0,0,0,0,0,189000000,466000000,-89000000,3000000,-86000000,-46000000,0,-46000000,-33000000,3000000,-30000000,0,225000000,63000000,5000000,0,5000000,0,-163000000,-100000000,0,-258000000,-21000000,250000000,-86000000,0,0,53000000,-216000000,528000000,380000000,0.3201,230000000,4370000000,98000000,0.0426,0.1451,0.0751,0.0786,0.1114,0.1786,0.3607,0.1249,0.092,0.048,0.0276,0.0899,3.443,0.2904,0.9032,0.2623,12.7566,1.5942,1.1745,0.6129,1.1473,13.1944,0.2958,9578097720,12283097720,14.3599,2.1917,97.7356,0.6075,9.6262,8.8277,18.4154,2.8107,125.3377,0.7791,12.3448,11.3208,0.3748,0.3534,0.1865,0.1407,-0.3958,-0.3809,-0.3913,0.0072,1.2731,0.1848,0.3794,0.0547,0.4472,-0.4098,0.4559,0.0,0.0026,0.0482,-0.045,0.0536,0.0272,0.0,0.0101,0.2954,1.4721,0.7428,-3.187,866000.0,3431000000,328467000,0.26,2008-10-27,29.16,0,0.38588282710871,0.097211665182766,0.1090741842553,0.096778781060562,0.057560390480625,0.20403482636303,0.089461510365285,3.4051844651911,0.34803362715832,1.189498702995,0.086751866726477,3,FY2008.FQ3
2008-12-31,3188000000,2029000000,1159000000,750000000,107000000,0,113000000,970000000,189000000,0,-35000000,-35000000,-26000000,128000000,-46000000,82000000,0,-11000000,0,71000000,0,71000000,0.21,0.21,329200000,330108000,118000000,1021000000,0,2804000000,1702000000,821000000,6348000000,509000000,8043000000,-5245000000,2798000000,1472000000,2641000000,930000000,14698000000,1402000000,62000000,1260000000,903000000,0,0,0,583000000,4210000000,3009000000,0,1072000000,425000000,2493000000,11209000000,484000000,0,8156000000,-1628000000,580000000,-4259000000,156000000,0,3489000000,14698000000,8350000000,6999000000,82000000,118000000,0,0,0,0,0,0,0,369000000,569000000,-148000000,13000000,-135000000,-43000000,0,-43000000,36000000,-1703000000,-1667000000,0,1911000000,66000000,0,-1000000,-1000000,0,-12000000,-108000000,0,-121000000,-9000000,505000000,-135000000,0,0,-18000000,6000000,307000000,434000000,0.3593,111250000,3489000000,-624000000,0.0361,0.1369,0.067,0.0741,0.1094,0.1735,0.3635,0.0962,0.0592,0.0401,0.0222,0.1361,4.2126,0.2373,1.1212,0.2661,9.6574,0.9299,0.5725,0.3877,1.3147,10.5692,-1.8902,6970069740,8958069740,12.9555,1.9977,-11.1699,0.4397,6.3421,7.6762,16.6506,2.5675,-14.3558,0.5652,8.1511,9.8657,0.027,0.0662,-0.14,-0.2758,-0.5803,-0.645,-0.6446,0.0052,0.941,0.0853,0.1638,-0.1594,0.2672,-0.1344,0.3151,0.0192,0.0,0.0121,-0.1273,0.0445,-0.0032,0.0623,0.0099,0.0668,1.5078,1.2325,-1.0169,0.0,2891000000,328467000,0.265,2009-02-19,21.22,0,0.38588282710871,0.097211665182766,0.1090741842553,0.096778781060562,0.057560390480625,0.20403482636303,0.089461510365285,3.4051844651911,0.34803362715832,1.189498702995,0.086751866726477,4,FY2008.FQ4
2009-03-31,2783000000,1718000000,1065000000,716000000,94000000,0,122000000,932000000,133000000,0,-48000000,-48000000,-196000000,-111000000,20000000,-91000000,0,-20000000,0,-111000000,0,-111000000,-0.34,-0.34,328000000,328800000,118000000,531000000,0,2713000000,1677000000,849000000,5770000000,493000000,7900000000,-5242000000,2658000000,1388000000,2544000000,750000000,13603000000,0,0,2414000000,869000000,0,0,0,687000000,3970000000,2986000000,0,1078000000,277000000,2289000000,10600000000,484000000,0,7958000000,-1877000000,514000000,-4249000000,173000000,0,3003000000,13603000000,7833000000,6630000000,-91000000,118000000,0,0,0,0,0,0,0,-318000000,-291000000,-51000000,1000000,-50000000,-11000000,0,-11000000,0,17000000,17000000,0,-44000000,-88000000,0,0,0,0,7000000,-87000000,0,-80000000,-31000000,-490000000,-50000000,0,0,27000000,-20000000,251000000,-341000000,0.0,70625000,3003000000,-929000000,0.0231,0.1007,0.0448,0.0501,0.1035,0.1636,0.3826,0.0901,0.0477,-0.0398,-0.0398,-0.1225,4.5298,0.2207,1.2837,0.2833,8.4641,0.7633,0.4045,-0.3375,-1.0371,9.1332,-2.8254,6070179150,8525179150,18.5632,2.0213,-6.5341,0.4137,8.0187,9.8862,26.0708,2.8388,-9.1767,0.5811,11.2617,13.8846,-0.2975,-0.2203,-0.3446,-0.4504,-1.6065,-2.11,-2.1147,-0.0072,0.7818,-0.1829,-0.1444,-0.3404,-6.9387,-0.0416,-342.0,0.0,0.0016,-0.0006,0.0,0.0336,-0.0183,0.0,0.0099,0.0,1.4534,-0.7794,0.0,540000.0,3324000000,329007000,0.265,2009-04-27,18.45,0,0.38588282710871,0.097211665182766,0.1090741842553,0.096778781060562,0.057560390480625,0.20403482636303,0.089461510365285,3.4051844651911,0.34803362715832,1.189498702995,0.086751866726477,1,FY2009.FQ1
2009-06-30,3115000000,1898000000,1217000000,731000000,97000000,0,122000000,950000000,267000000,0,-49000000,-49000000,35000000,253000000,-84000000,169000000,0,-23000000,0,146000000,0,146000000,0.44,0.44,327600000,328800000,119000000,1052000000,0,2847000000,1672000000,851000000,6422000000,499000000,8156000000,-5411000000,2745000000,1446000000,2696000000,757000000,14565000000,0,0,2513000000,896000000,0,0,0,693000000,4102000000,3306000000,0,1088000000,293000000,2408000000,11197000000,484000000,0,8017000000,-1613000000,522000000,-4235000000,193000000,0,3368000000,14565000000,8143000000,7095000000,169000000,119000000,0,0,0,0,0,0,0,109000000,397000000,-52000000,16000000,-36000000,-10000000,0,-10000000,0,2000000,2000000,0,0,-44000000,0,0,0,0,-181000000,-97000000,421000000,143000000,25000000,521000000,-36000000,0,0,0,-181000000,386000000,361000000,0.332,152500000,3368000000,-774000000,0.0158,0.07,0.0301,0.0337,0.0894,0.1418,0.3906,0.1239,0.0857,0.0812,0.0468,0.1158,4.3245,0.2312,1.2476,0.2884,9.4738,1.1739,0.812,0.7694,1.0979,10.2433,-2.354,7239549000,9493549000,32.4643,2.1495,-9.3534,0.5438,8.6805,15.3056,42.5719,2.8187,-12.2655,0.7132,11.3831,20.0709,-0.3037,-0.2601,-0.3424,-0.3672,-0.3578,-0.416,-0.4105,-0.0072,2.9548,-0.1837,-0.1013,-0.3009,0.1246,0.4782,0.2711,0.0,0.0024,0.0222,-0.0054,0.0376,-0.0009,0.015,0.0099,-0.0156,1.5655,0.5955,-59.5574,813000.0,3150000000,329820000,0.265,2009-07-27,21.95,0,0.38588282710871,0.097211665182766,0.1090741842553,0.096778781060562,0.057560390480625,0.20403482636303,0.089461510365285,3.4051844651911,0.34803362715832,1.189498702995,0.086751866726477,2,FY2009.FQ2
2009-09-30,3225000000,1989000000,1236000000,732000000,95000000,0,123000000,950000000,286000000,0,-47000000,-47000000,36000000,275000000,-90000000,185000000,0,-26000000,0,159000000,0,159000000,0.48,0.48,330400000,332000000,120000000,898000000,0,2853000000,1656000000,841000000,6248000000,506000000,8279000000,-5514000000,2765000000,1456000000,2798000000,796000000,14569000000,0,0,2720000000,455000000,0,0,0,694000000,3869000000,3082000000,0,1095000000,336000000,2453000000,10835000000,484000000,0,8088000000,-1431000000,562000000,-4165000000,196000000,0,3734000000,14569000000,8321000000,6966000000,185000000,120000000,0,0,0,0,0,0,0,349000000,654000000,-49000000,5000000,-44000000,-3000000,0,-3000000,0,0,0,0,41000000,-6000000,0,0,0,0,-296000000,-107000000,-421000000,-824000000,22000000,-154000000,-44000000,0,0,415000000,-711000000,406000000,610000000,0.3272,162500000,3734000000,-520000000,0.0181,0.0746,0.0347,0.0399,0.0777,0.1239,0.3832,0.1258,0.0886,0.0852,0.0493,0.1891,3.9017,0.2562,0.9472,0.2427,9.7138,1.2228,0.8614,0.8283,1.8373,11.2469,-1.5662,9721895810,11905895810,36.6863,2.6036,-18.6959,0.7896,9.1371,17.8383,44.9279,3.1885,-22.8959,0.967,11.1897,21.8456,-0.2366,-0.1889,-0.231,-0.2647,0.3546,0.3589,0.3714,0.0024,0.7403,-0.024,-0.0317,-0.1455,0.4034,0.4883,0.6052,0.0,0.0125,0.0205,-0.0195,0.0348,0.0036,0.0,0.0058,0.0,1.6148,0.552,-18.7288,4151000.0,2639000000,333971000,0.265,2009-10-26,29.11,0,0.38588282710871,0.097211665182766,0.1090741842553,0.096778781060562,0.057560390480625,0.20403482636303,0.089461510365285,3.4051844651911,0.34803362715832,1.189498702995,0.086751866726477,3,FY2009.FQ3
2009-12-31,3116000000,1934000000,1182000000,757000000,102000000,0,126000000,985000000,197000000,0,-21000000,-21000000,24000000,200000000,-37000000,163000000,0,-21000000,0,142000000,0,142000000,0.43,0.43,332000000,333400000,123000000,1057000000,7000000,2628000000,1548000000,741000000,5981000000,499000000,8313000000,-5559000000,2754000000,1416000000,2784000000,806000000,14240000000,1384000000,33000000,1231000000,272000000,0,0,0,657000000,3577000000,3074000000,0,1010000000,328000000,2329000000,10318000000,484000000,0,8139000000,-1261000000,609000000,-4218000000,169000000,0,3922000000,14240000000,8259000000,6741000000,163000000,123000000,0,0,0,0,0,0,0,299000000,585000000,-87000000,21000000,-66000000,-2000000,0,-2000000,0,0,0,0,3000000,-65000000,0,0,0,0,-810000000,-139000000,587000000,-362000000,1000000,159000000,-66000000,0,0,414000000,-1224000000,320000000,519000000,0.185,110000000,3922000000,-278000000,0.0233,0.0877,0.045,0.0518,0.0799,0.1295,0.3793,0.1026,0.0632,0.0641,0.0455,0.1665,3.6308,0.2754,0.8531,0.2349,9.3461,0.9598,0.5908,0.5998,1.5566,11.7636,-0.8338,9698175450,11708175450,28.8636,2.4727,-34.8855,0.7923,8.4405,15.7182,34.8457,2.9852,-42.1157,0.9566,10.1898,18.9759,-0.0225,0.0198,0.0423,0.0423,0.5625,1.0,1.0,0.0099,0.0352,-0.0157,-0.0311,0.1241,0.0281,0.5111,0.1958,0.0188,-0.0078,-0.0012,-0.0541,0.0291,0.0013,0.0824,0.0077,0.0605,1.672,0.6279,-5.3342,-2636000.0,2289000000,331335000,0.27,2010-02-18,29.27,0,0.38588282710871,0.097211665182766,0.1090741842553,0.096778781060562,0.057560390480625,0.20403482636303,0.089461510365285,3.4051844651911,0.34803362715832,1.189498702995,0.086751866726477,4,FY2009.FQ4
2010-03-31,3126000000,1944000000,1182000000,727000000,96000000,0,121000000,944000000,238000000,0,-45000000,-45000000,13000000,206000000,-147000000,59000000,0,-29000000,0,30000000,0,30000000,0.09,0.09,331800000,334000000,121000000,689000000,0,2809000000,1599000000,825000000,5922000000,503000000,8209000000,-5549000000,2660000000,1343000000,2687000000,641000000,13756000000,0,0,2685000000,112000000,0,0,0,621000000,3418000000,3051000000,0,1016000000,319000000,2163000000,9967000000,484000000,0,8080000000,-1353000000,580000000,-4199000000,197000000,0,3789000000,13756000000,7834000000,6549000000,59000000,121000000,-230000000,-83000000,0,12000000,-301000000,0,0,67000000,-54000000,-45000000,8000000,-37000000,-16000000,0,-16000000,-45000000,5000000,-40000000,0,0,-93000000,20000000,0,20000000,0,-155000000,-90000000,0,-225000000,4000000,-368000000,-37000000,0,0,2000000,-157000000,359000000,-91000000,0.7135,130625000,3789000000,-241000000,0.034,0.1237,0.0654,0.0742,0.0924,0.1502,0.3781,0.1148,0.0761,0.0658,0.0095,-0.0291,3.6305,0.2754,0.8347,0.2299,9.3592,1.0748,0.7125,0.6167,-0.2724,11.3443,-0.7215,10877785800,13239785800,22.8045,2.8708,-45.136,0.8645,7.7754,11.6464,27.7563,3.4942,-54.9368,1.0522,9.4637,14.1753,0.1232,0.1098,0.4302,0.7894,2.8558,1.2702,1.2647,0.0158,0.2975,0.0007,0.0112,0.2617,0.8144,0.26,0.7331,0.0,0.0039,0.0017,-0.1692,0.0234,-0.0088,0.0,0.0037,0.0,1.7325,3.0,-1.3471,1319000.0,2474000000,332654000,0.27,2010-04-26,32.7,0,0.38588282710871,0.097211665182766,0.1090741842553,0.096778781060562,0.057560390480625,0.20403482636303,0.089461510365285,3.4051844651911,0.34803362715832,1.189498702995,0.086751866726477,1,FY2010.FQ1
2010-06-30,3458000000,2076000000,1382000000,745000000,97000000,0,115000000,957000000,425000000,0,-46000000,-46000000,33000000,412000000,-111000000,301000000,0,-29000000,0,272000000,0,272000000,0.82,0.81,330800000,333200000,115000000,784000000,0,2781000000,1541000000,780000000,5886000000,525000000,8014000000,-5481000000,2533000000,1238000000,2526000000,658000000,13366000000,0,0,2724000000,59000000,0,0,0,590000000,3373000000,3017000000,0,1045000000,301000000,1991000000,9727000000,484000000,0,8262000000,-1603000000,597000000,-4290000000,189000000,0,3639000000,13366000000,7480000000,6354000000,301000000,115000000,-176000000,-15000000,0,289000000,98000000,0,0,-93000000,421000000,-48000000,1000000,-47000000,-2000000,0,-2000000,0,0,0,0,-5000000,-54000000,22000000,-105000000,-83000000,0,-50000000,-118000000,0,-251000000,-21000000,95000000,-47000000,0,0,-2000000,-48000000,540000000,374000000,0.2694,247500000,3639000000,-125000000,0.0444,0.1623,0.0858,0.0958,0.1117,0.1803,0.3996,0.1561,0.1229,0.1191,0.0786,0.1081,3.6729,0.2722,0.8452,0.2301,10.3781,1.6206,1.2755,1.2364,1.1224,10.9213,-0.3751,9978363000,12211363000,16.5478,2.742,-79.8269,0.772,7.0668,9.1293,20.251,3.3556,-97.6909,0.9447,8.6482,11.1723,0.1101,0.1355,0.3989,0.5917,0.6284,0.863,0.8314,0.0133,-0.2547,-0.0772,-0.0823,0.0804,0.0604,-0.3055,0.036,0.0,-0.007,0.0108,0.0302,0.0056,-0.013,0.0125,0.0037,-0.0064,1.745,0.3312,5.4713,-2354000.0,2292000000,330300000,0.27,2010-07-26,30.21,0,0.38588282710871,0.097211665182766,0.1090741842553,0.096778781060562,0.057560390480625,0.20403482636303,0.089461510365285,3.4051844651911,0.34803362715832,1.189498702995,0.086751866726477,2,FY2010.FQ2
2010-09-30,3460000000,2108000000,1352000000,739000000,97000000,0,116000000,952000000,400000000,9000000,-46000000,-37000000,23000000,386000000,-94000000,292000000,0,-30000000,0,262000000,0,262000000,0.79,0.79,328400000,330800000,116000000,930000000,0,2958000000,1638000000,779000000,6305000000,536000000,8314000000,-5694000000,2620000000,1297000000,2725000000,637000000,14120000000,0,0,2860000000,69000000,0,0,0,594000000,3523000000,3066000000,0,1050000000,316000000,2063000000,10018000000,484000000,0,8433000000,-1280000000,679000000,-4442000000,228000000,0,4102000000,14120000000,7815000000,6495000000,292000000,116000000,11000000,-3000000,0,67000000,75000000,0,0,-152000000,331000000,-65000000,18000000,-47000000,0,0,0,36000000,0,36000000,0,6000000,-5000000,27000000,-170000000,-143000000,0,7000000,-93000000,11000000,-218000000,38000000,146000000,-47000000,0,0,0,7000000,516000000,284000000,0.2435,236875000,4102000000,80000000,0.0513,0.1824,0.0982,0.1115,0.1216,0.1948,0.3907,0.1491,0.1156,0.1115,0.0757,0.082,3.4422,0.2905,0.7642,0.222,10.4594,1.5598,1.2091,1.1668,0.8585,12.4002,0.2418,11867819600,14003819600,16.8099,2.8931,148.3477,0.9018,10.928,9.8569,19.8354,3.4139,175.0477,1.0641,12.8948,11.631,0.0728,0.0938,0.2709,0.3986,0.4036,0.6477,0.6458,-0.0036,0.0356,-0.0524,-0.0308,0.0985,-0.4938,-0.0681,-0.5344,0.0185,-0.0129,-0.0134,0.0998,-0.0117,-0.0103,0.7592,0.0056,0.2104,1.7896,0.3481,1.6835,-4261000.0,2205000000,326039000,0.275,2010-11-01,36.4,0,0.38588282710871,0.097211665182766,0.1090741842553,0.096778781060562,0.057560390480625,0.20403482636303,0.089461510365285,3.4051844651911,0.34803362715832,1.189498702995,0.086751866726477,3,FY2010.FQ3
2010-12-31,3379000000,2086000000,1293000000,768000000,104000000,0,60000000,932000000,361000000,9000000,-52000000,-43000000,-27000000,291000000,-63000000,228000000,0,-23000000,0,205000000,0,205000000,0.63,0.62,325400000,325400000,118000000,1341000000,637000000,2778000000,1573000000,729000000,7058000000,550000000,8415000000,-5729000000,2686000000,1268000000,2719000000,694000000,14975000000,1626000000,56000000,1320000000,28000000,0,0,0,595000000,3625000000,4043000000,0,1151000000,293000000,2030000000,11142000000,484000000,0,8548000000,-1411000000,725000000,-4708000000,195000000,0,3833000000,14975000000,7917000000,7517000000,228000000,118000000,207000000,67000000,0,93000000,367000000,0,0,-101000000,612000000,-149000000,-1000000,-150000000,-16000000,0,-16000000,-624000000,0,-624000000,0,-7000000,-797000000,77000000,-311000000,-234000000,0,957000000,-59000000,-74000000,590000000,6000000,411000000,-150000000,0,0,1989000000,-1032000000,479000000,462000000,0.2164,216875000,3833000000,-154000000,0.0528,0.1938,0.0988,0.1156,0.1291,0.2029,0.3826,0.1417,0.1068,0.0861,0.0606,0.1367,3.9068,0.2559,1.062,0.2718,10.3841,1.472,1.1094,0.8942,1.4197,11.7793,-0.4732,13484918560,15549918560,17.5356,3.5181,-87.5644,1.0046,13.1048,10.413,20.2209,4.0568,-100.9734,1.1584,15.1116,12.0076,0.0844,0.0939,0.4968,0.8324,0.455,0.4436,0.4418,-0.0239,0.2686,-0.0246,0.0516,-0.0226,0.0461,-1.2727,-0.1098,0.0,-0.0161,-0.0276,-0.0195,-0.0078,-0.0226,0.0498,0.0056,0.0565,1.947,0.4435,-8.9893,-5275000.0,2730000000,320764000,0.275,2011-02-17,42.04,0,0.38588282710871,0.097211665182766,0.1090741842553,0.096778781060562,0.057560390480625,0.20403482636303,0.089461510365285,3.4051844651911,0.34803362715832,1.189498702995,0.086751866726477,4,FY2010.FQ4
2011-03-31,3533000000,2127000000,1406000000,797000000,103000000,0,117000000,1017000000,389000000,10000000,-53000000,-43000000,5000000,351000000,-92000000,259000000,0,-31000000,0,228000000,0,228000000,0.71,0.7,320800000,325000000,117000000,796000000,587000000,3126000000,1755000000,820000000,7084000000,554000000,8562000000,-5866000000,2696000000,1283000000,2814000000,672000000,15103000000,0,0,3045000000,96000000,0,0,0,608000000,3749000000,3993000000,0,1159000000,302000000,1905000000,11108000000,484000000,0,8687000000,-1187000000,742000000,-4960000000,229000000,0,3995000000,15103000000,8019000000,7359000000,259000000,117000000,-312000000,-142000000,0,-30000000,-484000000,0,0,-48000000,-156000000,-54000000,15000000,-39000000,-10000000,0,-10000000,-146000000,150000000,4000000,0,0,-45000000,37000000,-283000000,-246000000,0,-4000000,-89000000,-14000000,-353000000,9000000,-545000000,-39000000,0,0,2000000,-6000000,506000000,-195000000,0.2621,230000000,3995000000,-102000000,0.0642,0.247,0.1178,0.1354,0.1379,0.2136,0.3979,0.1432,0.1101,0.0993,0.0645,-0.0551,3.7804,0.2645,1.0235,0.2707,10.8707,1.5569,1.1969,1.08,-0.6,12.2923,-0.3138,15059233440,17669233440,15.5731,3.7695,-147.6395,1.0888,16.2802,10.4578,18.2722,4.4228,-173.2277,1.2776,19.1018,12.2703,0.1301,0.1895,0.4094,0.6344,0.7038,6.6,6.7777,-0.0269,0.1552,0.0135,0.0979,0.0543,-1.8888,-0.054,-1.1428,0.0,-0.0139,-0.0177,0.0717,0.0003,-0.0089,0.0,0.0056,0.0,1.8895,0.3928,2.1697,-4460000.0,3293000000,316304000,0.275,2011-05-02,47.61,0,0.38588282710871,0.097211665182766,0.1090741842553,0.096778781060562,0.057560390480625,0.20403482636303,0.089461510365285,3.4051844651911,0.34803362715832,1.189498702995,0.086751866726477,1,FY2011.FQ1
2011-06-30,3986000000,2417000000,1569000000,829000000,110000000,0,119000000,1058000000,511000000,11000000,-55000000,-44000000,33000000,500000000,-128000000,372000000,0,-32000000,0,340000000,0,340000000,1.07,1.06,316400000,320600000,119000000,982000000,263000000,3345000000,1821000000,828000000,7239000000,405000000,8706000000,-5947000000,2759000000,1280000000,2871000000,713000000,15267000000,0,0,3199000000,111000000,0,0,0,612000000,3922000000,3613000000,0,1162000000,305000000,1977000000,10979000000,484000000,0,8938000000,-1083000000,759000000,-5044000000,234000000,0,4288000000,15267000000,8028000000,7057000000,372000000,119000000,-196000000,-34000000,0,125000000,-105000000,0,0,22000000,408000000,-80000000,3000000,-77000000,-42000000,0,-42000000,0,-72000000,-72000000,0,561000000,370000000,24000000,-100000000,-76000000,0,-387000000,-121000000,-24000000,-608000000,16000000,186000000,-77000000,0,0,1000000,-388000000,630000000,331000000,0.256,306250000,4288000000,137000000,0.0681,0.2499,0.125,0.14,0.145,0.2266,0.3936,0.158,0.1281,0.1254,0.0852,0.083,3.5604,0.2808,0.8684,0.2439,12.4329,1.965,1.5938,1.5595,1.0324,13.3749,0.4273,14302679800,16670679800,13.819,3.3355,104.3991,0.9961,16.2161,9.3603,16.1069,3.8877,121.6837,1.161,18.9009,10.9101,0.1526,0.1353,0.1666,0.2023,0.2135,0.25,0.3006,-0.0378,0.2525,0.0892,0.1422,0.1783,-0.0308,-0.6382,-0.1149,0.0363,-0.004,0.0225,0.1729,0.0038,0.0208,-0.0267,0.0073,-0.0327,1.8457,0.2688,0.7989,-1267000.0,2742000000,315037000,0.285,2011-08-01,45.4,0,0.38588282710871,0.097211665182766,0.1090741842553,0.096778781060562,0.057560390480625,0.20403482636303,0.089461510365285,3.4051844651911,0.34803362715832,1.189498702995,0.086751866726477,2,FY2011.FQ2
2011-09-30,3849000000,2353000000,1496000000,806000000,108000000,0,116000000,1030000000,466000000,11000000,-51000000,-40000000,36000000,462000000,-120000000,342000000,0,-31000000,0,311000000,0,311000000,0.99,0.98,313600000,317200000,116000000,1301000000,37000000,3088000000,1737000000,777000000,6940000000,400000000,8537000000,-5868000000,2669000000,1174000000,2698000000,662000000,14543000000,0,0,3105000000,102000000,0,0,0,581000000,3788000000,3590000000,0,1828000000,286000000,1145000000,10637000000,484000000,0,9159000000,-1464000000,771000000,-5288000000,244000000,0,3906000000,14543000000,7603000000,6849000000,342000000,116000000,118000000,-14000000,0,7000000,111000000,0,0,-44000000,525000000,-101000000,13000000,-88000000,-4000000,0,-4000000,11000000,646000000,657000000,0,-396000000,169000000,9000000,-250000000,-241000000,0,-9000000,-58000000,-1000000,-309000000,-66000000,319000000,-88000000,0,0,1000000,-10000000,582000000,437000000,0.2597,278750000,3906000000,34000000,0.0727,0.2645,0.1347,0.157,0.1547,0.2417,0.3886,0.1512,0.121,0.12,0.0808,0.1135,3.7232,0.2685,0.9452,0.2538,12.1343,1.8348,1.4691,1.4564,1.3776,12.3139,0.1071,10911493850,13163493850,10.0659,2.7935,320.9262,0.7399,10.5425,6.8026,12.1434,3.37,387.1615,0.8926,12.7183,8.2066,0.1124,0.1065,0.1279,0.165,0.1968,0.187,0.2405,-0.0411,0.3989,0.0187,0.0299,-0.0477,0.5861,-0.8723,0.5387,0.0,-0.0196,0.0329,0.0,0.0067,0.0266,0.0,0.0073,0.0,1.8321,0.2908,0.0,-6192000.0,2391000000,308845000,0.285,2011-10-31,35.33,0,0.38588282710871,0.097211665182766,0.1090741842553,0.096778781060562,0.057560390480625,0.20403482636303,0.089461510365285,3.4051844651911,0.34803362715832,1.189498702995,0.086751866726477,3,FY2011.FQ3
2011-12-30,1785000000,968000000,817000000,690000000,107000000,0,18000000,815000000,2000000,10000000,-51000000,-41000000,-52000000,-91000000,80000000,-11000000,0,-23000000,0,216000000,0,216000000,0.7,0.69,307400000,311400000,73000000,1457000000,25000000,2830000000,1607000000,775000000,6694000000,387000000,8614000000,-5893000000,2721000000,1125000000,2660000000,795000000,14382000000,1813000000,51000000,1024000000,108000000,0,0,0,706000000,3702000000,3574000000,0,2275000000,272000000,1113000000,10936000000,484000000,0,9288000000,-1800000000,783000000,-5506000000,197000000,0,3446000000,14382000000,7688000000,7234000000,-11000000,73000000,283000000,116000000,0,-74000000,325000000,0,0,272000000,659000000,-155000000,-4000000,-159000000,25000000,0,25000000,0,25000000,25000000,0,-32000000,-141000000,11000000,-225000000,-214000000,0,0,-87000000,-61000000,-362000000,0,156000000,-159000000,0,0,-4000000,4000000,75000000,500000000,0.0,149375000,3446000000,-339000000,0.0757,0.2978,0.1443,0.1764,0.1264,0.1955,0.4577,0.042,0.0011,-0.0509,0.121,0.2801,4.1735,0.2396,1.0684,0.256,5.7321,0.2408,0.0064,-0.2922,1.6056,11.0661,-1.0886,12682731500,14774731500,11.5824,3.6804,-37.4121,0.9642,11.8198,10.3786,13.4929,4.2875,-43.5832,1.1232,13.7695,12.0906,-0.4717,-0.3681,-0.8434,-0.9944,-1.3127,0.0536,0.1209,-0.043,0.0865,0.013,-0.0395,-0.1009,0.0767,-0.06,0.0822,0.0,-0.0164,-0.0541,0.0455,-0.0012,0.0022,0.0331,0.0073,0.0519,1.8082,0.41,2.5404,-5067000.0,2225000000,303778000,0.285,2012-02-16,41.75,0,0.38588282710871,0.097211665182766,0.1090741842553,0.096778781060562,0.057560390480625,0.20403482636303,0.089461510365285,3.4051844651911,0.34803362715832,1.189498702995,0.086751866726477,4,FY2011.FQ4
2012-03-30,3333000000,1946000000,1387000000,823000000,110000000,0,108000000,1041000000,346000000,10000000,-51000000,-41000000,-352000000,-47000000,31000000,-16000000,67000000,-38000000,0,13000000,0,13000000,0.04,0.04,305600000,309000000,108000000,978000000,56000000,3236000000,1830000000,844000000,6944000000,426000000,8808000000,-6023000000,2785000000,1132000000,2729000000,818000000,14834000000,0,0,3133000000,669000000,0,0,0,756000000,4558000000,2988000000,0,1312000000,262000000,2198000000,11318000000,484000000,0,9213000000,-1653000000,797000000,-5548000000,223000000,0,3516000000,14834000000,7890000000,6760000000,-16000000,108000000,-286000000,-129000000,0,-81000000,-496000000,0,0,402000000,-2000000,-57000000,29000000,-28000000,-44000000,0,-44000000,-91000000,0,-91000000,0,-18000000,-181000000,50000000,-92000000,-42000000,0,-176000000,-87000000,-7000000,-312000000,16000000,-479000000,-28000000,0,0,0,-176000000,454000000,-30000000,0.0,240625000,3516000000,-345000000,0.0602,0.2528,0.1195,0.1432,0.1219,0.1881,0.4161,0.1362,0.1038,-0.0141,0.0039,-0.009,4.2189,0.237,1.0401,0.2465,10.7864,1.4692,1.1197,-0.1521,-0.097,11.3786,-1.1165,14589046700,16543046700,16.5784,4.1493,-42.287,1.1263,11.7843,17.7051,18.7989,4.705,-47.9508,1.2771,13.3627,20.0765,-0.0566,-0.0135,-0.1027,-0.1105,-1.1339,-0.9429,-0.9428,-0.0492,0.2286,0.033,-0.0178,-0.1198,0.9871,0.282,0.8461,0.0,0.0026,0.0032,-0.22,0.0018,-0.0059,0.0,0.0073,0.0,1.5234,7.125,-0.7534,795000.0,2679000000,304573000,0.285,2012-04-30,47.9,0,0.38588282710871,0.097211665182766,0.1090741842553,0.096778781060562,0.057560390480625,0.20403482636303,0.089461510365285,3.4051844651911,0.34803362715832,1.189498702995,0.086751866726477,1,FY2012.FQ1
2012-06-29,3528000000,2066000000,1462000000,792000000,113000000,0,102000000,1007000000,455000000,9000000,-50000000,-41000000,12000000,426000000,-98000000,328000000,68000000,-34000000,0,362000000,0,362000000,1.18,1.17,306400000,310000000,103000000,1017000000,230000000,3310000000,1775000000,819000000,7151000000,419000000,8725000000,-6006000000,2719000000,1067000000,2644000000,817000000,14817000000,0,0,3160000000,647000000,0,0,0,758000000,4565000000,2964000000,0,2213000000,241000000,1159000000,11142000000,484000000,0,9486000000,-1793000000,815000000,-5531000000,214000000,0,3675000000,14817000000,7666000000,6577000000,328000000,103000000,-103000000,5000000,0,58000000,-40000000,0,0,45000000,436000000,-66000000,-8000000,-74000000,-8000000,19000000,11000000,-200000000,26000000,-174000000,0,-12000000,-249000000,21000000,0,21000000,0,-15000000,-90000000,-47000000,-131000000,-17000000,39000000,-74000000,0,0,0,-15000000,558000000,362000000,0.23,311250000,3675000000,-36000000,0.0608,0.2508,0.1211,0.1398,0.1161,0.1778,0.4143,0.1581,0.1289,0.1207,0.1026,0.1026,4.0318,0.248,0.9825,0.2437,11.3806,1.8,1.4677,1.3741,1.1677,11.8548,-0.1161,16203250560,17920250560,17.9636,4.409,-450.0902,1.2967,12.7685,21.6043,19.8672,4.8762,-497.7847,1.4341,14.1215,23.8936,-0.1149,-0.0681,-0.1142,-0.1095,-0.148,0.0647,0.1037,-0.033,0.0356,-0.0144,-0.0294,-0.1429,0.0686,0.0389,0.0936,0.035,0.0026,0.0124,0.1052,0.0039,-0.0064,-0.0353,0.0088,-0.0289,1.5664,0.2521,1.7063,803000.0,2594000000,305376000,0.295,2012-07-30,53.06,0,0.38588282710871,0.097211665182766,0.1090741842553,0.096778781060562,0.057560390480625,0.20403482636303,0.089461510365285,3.4051844651911,0.34803362715832,1.189498702995,0.086751866726477,2,FY2012.FQ2
2012-09-28,3408000000,1983000000,1425000000,779000000,112000000,0,105000000,996000000,429000000,10000000,-54000000,-44000000,17000000,402000000,-92000000,310000000,54000000,-25000000,0,339000000,0,339000000,1.1,1.09,307400000,311000000,104000000,1392000000,619000000,3190000000,1777000000,799000000,7777000000,424000000,8851000000,-6092000000,2759000000,1066000000,2706000000,874000000,15606000000,0,0,3105000000,636000000,0,0,0,749000000,4490000000,3365000000,0,2218000000,263000000,1138000000,11474000000,484000000,0,9734000000,-1704000000,851000000,-5504000000,271000000,0,4132000000,15606000000,7829000000,6984000000,310000000,104000000,164000000,41000000,0,64000000,269000000,0,0,-78000000,605000000,-70000000,0,-70000000,-1000000,-19000000,-20000000,-462000000,94000000,-368000000,0,12000000,-446000000,39000000,0,39000000,0,386000000,-90000000,-133000000,202000000,14000000,375000000,-70000000,0,0,397000000,-11000000,533000000,535000000,0.2288,292500000,4132000000,360000000,0.0611,0.2382,0.1169,0.1378,0.1087,0.1624,0.4181,0.1563,0.1258,0.1179,0.0994,0.1569,3.7768,0.2647,0.9682,0.2563,10.9581,1.7138,1.3794,1.2926,1.7202,13.2861,1.1575,17610771420,18964771420,18.9363,4.262,48.9188,1.4609,12.8827,25.5228,20.3922,4.5897,52.6799,1.5733,13.8732,27.4851,-0.1145,-0.0474,-0.0841,-0.0793,-0.1298,0.09,0.1122,-0.0195,0.0699,0.0337,0.073,0.0578,0.1523,0.2045,0.2242,0.0,0.0043,0.0086,0.2832,0.0126,0.0087,0.0,0.0088,0.0,1.732,0.2706,0.6684,1325000.0,2609000000,306701000,0.295,2012-10-29,57.42,0,0.38588282710871,0.097211665182766,0.1090741842553,0.096778781060562,0.057560390480625,0.20403482636303,0.089461510365285,3.4051844651911,0.34803362715832,1.189498702995,0.086751866726477,3,FY2012.FQ3
2012-12-31,2417000000,1604000000,813000000,593000000,95000000,0,33000000,721000000,92000000,11000000,-55000000,-44000000,-1000000,47000000,11000000,58000000,195000000,-26000000,0,227000000,0,227000000,0.73,0.73,308000000,312000000,84000000,1306000000,1087000000,2813000000,1687000000,822000000,7715000000,422000000,9030000000,-6142000000,2888000000,1085000000,2761000000,1007000000,15878000000,1832000000,71000000,1055000000,642000000,0,0,0,861000000,4461000000,3368000000,0,2344000000,231000000,1152000000,11556000000,484000000,0,9871000000,-1666000000,870000000,-5496000000,259000000,0,4322000000,15878000000,8163000000,7095000000,58000000,84000000,396000000,136000000,0,-93000000,439000000,0,0,167000000,748000000,-218000000,0,-218000000,-69000000,0,-69000000,-656000000,184000000,-472000000,0,24000000,-735000000,12000000,0,12000000,0,3000000,-91000000,-34000000,-110000000,11000000,-86000000,-218000000,0,0,0,3000000,176000000,530000000,0.0,170000000,4322000000,476000000,0.0597,0.2226,0.1107,0.1316,0.111,0.1632,0.3363,0.0728,0.038,0.0194,0.0939,0.2192,3.6737,0.2722,0.9278,0.2525,7.7467,0.5641,0.2948,0.1506,1.6987,13.8525,1.5256,20786761440,21761761440,22.09,4.8095,43.6696,1.6385,14.8795,25.1047,23.1262,5.0351,45.7179,1.7154,15.5774,26.2823,0.354,-0.0048,1.3466,45.0,1.5164,0.0509,0.0503,0.0019,-0.1036,0.0613,0.104,0.2542,0.135,-0.371,0.06,0.0,0.0014,-0.0351,-0.0109,0.0173,0.0173,0.0354,0.0088,0.0591,1.7294,0.4041,-20.1663,432000.0,2704000000,307133000,0.295,2013-02-21,67.68,0,0.38588282710871,0.097211665182766,0.1090741842553,0.096778781060562,0.057560390480625,0.20403482636303,0.089461510365285,3.4051844651911,0.34803362715832,1.189498702995,0.086751866726477,4,FY2012.FQ4
2013-03-29,3108000000,1862000000,1246000000,746000000,109000000,0,101000000,956000000,290000000,10000000,-53000000,-43000000,-6000000,241000000,-44000000,197000000,2248000000,-35000000,0,2410000000,0,2410000000,8.24,8.15,292200000,295400000,101000000,2021000000,359000000,2824000000,1698000000,824000000,7726000000,418000000,7042000000,-4581000000,2461000000,1033000000,2694000000,1044000000,15376000000,0,0,2949000000,48000000,0,0,0,730000000,3727000000,3353000000,0,1977000000,235000000,1043000000,10335000000,484000000,0,12196000000,-1608000000,888000000,-7173000000,254000000,0,5041000000,15376000000,7650000000,6608000000,197000000,101000000,-273000000,-109000000,0,-29000000,-411000000,-66000000,15000000,75000000,-89000000,-63000000,0,-63000000,0,940000000,940000000,-267000000,1006000000,739000000,0,-2000000,1614000000,32000000,-140000000,-108000000,0,-600000000,-84000000,-8000000,-800000000,-10000000,715000000,-63000000,0,0,0,-600000000,391000000,-152000000,0.1825,1570625000,5041000000,1314000000,0.2136,0.713,0.3861,0.4782,0.1065,0.1564,0.4009,0.1258,0.0933,0.0775,0.7754,-0.0489,3.0501,0.3278,0.6746,0.2211,10.5213,1.3236,0.9817,0.8158,-0.5145,17.0649,4.4482,19106072210,20079072210,5.7238,3.7901,14.5403,1.5332,14.9851,17.1201,6.0153,3.9831,15.2808,1.6113,15.7482,17.992,-0.0675,-0.1016,-0.1387,-0.1618,6.1276,184.3846,202.875,-0.044,1.0664,-0.1163,0.0365,0.4337,-43.5,-1.25,-4.0666,0.0,-0.0711,-0.0106,0.2629,0.0085,0.0208,0.0,0.007,0.0,2.0729,0.0361,0.2176,-21840000.0,1380000000,285293000,0.295,2013-04-29,66.97,0,0.38588282710871,0.097211665182766,0.1090741842553,0.096778781060562,0.057560390480625,0.20403482636303,0.089461510365285,3.4051844651911,0.34803362715832,1.189498702995,0.086751866726477,1,FY2013.FQ1
2013-06-28,3883000000,2263000000,1620000000,925000000,118000000,0,119000000,1162000000,458000000,9000000,-47000000,-38000000,2000000,422000000,-98000000,324000000,47000000,-30000000,0,341000000,0,341000000,1.19,1.17,286800000,290000000,119000000,1243000000,538000000,3223000000,1862000000,844000000,7710000000,402000000,7273000000,-4636000000,2637000000,1374000000,2937000000,1006000000,16066000000,0,0,3343000000,24000000,0,0,0,739000000,4106000000,3355000000,0,2030000000,224000000,1050000000,10765000000,484000000,0,12450000000,-1639000000,907000000,-7160000000,259000000,0,5301000000,16066000000,8356000000,6659000000,324000000,119000000,-189000000,85000000,0,121000000,17000000,34000000,17000000,72000000,583000000,-86000000,0,-86000000,-975000000,0,-975000000,-339000000,187000000,-152000000,0,-7000000,-1220000000,13000000,0,13000000,0,-2000000,-87000000,-48000000,-124000000,-17000000,-778000000,-86000000,0,0,1000000,-3000000,577000000,497000000,0.2322,302500000,5301000000,990000000,0.2109,0.6414,0.3761,0.4616,0.1071,0.1622,0.4172,0.1485,0.1179,0.1086,0.0878,0.1279,3.0307,0.3299,0.6374,0.2103,13.3896,1.9896,1.5793,1.4551,1.7137,18.2793,3.4137,20924589360,22498589360,6.3082,3.9472,21.1359,1.6326,14.8401,18.817,6.7828,4.2442,22.7258,1.7555,15.9564,20.2325,0.1006,0.108,0.034,0.0065,-0.0093,-0.058,0.0042,-0.0645,0.2222,-0.0301,0.0842,0.4424,0.3371,-0.1621,0.3729,0.0338,0.0018,0.0139,0.066,0.007,0.0329,0.0073,0.0104,-0.0048,1.8777,0.2595,0.9555,523000.0,2136000000,285816000,0.305,2013-07-29,73.21,0,0.38588282710871,0.097211665182766,0.1090741842553,0.096778781060562,0.057560390480625,0.20403482636303,0.089461510365285,3.4051844651911,0.34803362715832,1.189498702995,0.086751866726477,2,FY2013.FQ2
2013-09-30,3774000000,2161000000,1613000000,910000000,117000000,0,113000000,1140000000,473000000,11000000,-48000000,-37000000,-189000000,247000000,-40000000,207000000,48000000,-29000000,0,226000000,0,226000000,0.79,0.78,286400000,289800000,113000000,1562000000,687000000,3122000000,1878000000,871000000,8120000000,404000000,7449000000,-4762000000,2687000000,1371000000,3023000000,1033000000,16638000000,0,0,3503000000,27000000,0,0,0,832000000,4362000000,3368000000,0,2029000000,216000000,1182000000,11157000000,484000000,0,12589000000,-1469000000,936000000,-7329000000,270000000,0,5481000000,16638000000,8518000000,6795000000,207000000,113000000,156000000,18000000,0,24000000,198000000,-17000000,27000000,260000000,788000000,-101000000,0,-101000000,-3000000,0,-3000000,-481000000,358000000,-123000000,0,1000000,-226000000,14000000,-180000000,-166000000,0,-5000000,-88000000,-4000000,-263000000,20000000,319000000,-101000000,0,0,0,-5000000,586000000,687000000,0.1619,314375000,5481000000,1087000000,0.1959,0.5943,0.3543,0.4193,0.1081,0.1685,0.4273,0.1552,0.1253,0.0654,0.0598,0.182,3.0355,0.3294,0.6194,0.204,13.0227,2.022,1.6321,0.8523,2.3706,18.913,3.7508,23726278850,24845278850,7.4052,4.3288,21.8273,1.7998,15.1896,24.7923,7.7544,4.5329,22.8567,1.8847,15.906,25.9616,0.1073,0.1319,0.0994,0.1025,-0.3855,-0.3333,-0.2844,-0.0681,0.1221,-0.026,0.0661,0.3264,0.3024,-0.4428,0.2841,0.0,-0.0061,0.0066,0.0108,0.0097,0.0321,0.0,0.0104,0.0,1.8615,0.391,6.8061,-1771000.0,1833000000,284045000,0.305,2013-10-28,83.53,0,0.38588282710871,0.097211665182766,0.1090741842553,0.096778781060562,0.057560390480625,0.20403482636303,0.089461510365285,3.4051844651911,0.34803362715832,1.189498702995,0.086751866726477,3,FY2013.FQ3
2013-12-31,3500000000,2028000000,1472000000,905000000,119000000,0,71000000,1095000000,377000000,13000000,-48000000,-35000000,-26000000,316000000,-71000000,245000000,37000000,-28000000,0,254000000,0,254000000,0.9,0.89,280800000,284800000,119000000,1116000000,629000000,2736000000,1824000000,909000000,7214000000,393000000,7681000000,-4805000000,2876000000,1339000000,3008000000,1033000000,15863000000,2015000000,80000000,1077000000,34000000,0,0,0,929000000,4135000000,3372000000,0,1735000000,249000000,1174000000,10665000000,484000000,0,12757000000,-1260000000,953000000,-8002000000,266000000,0,5198000000,15863000000,8649000000,6530000000,245000000,119000000,281000000,50000000,0,-143000000,188000000,33000000,22000000,-98000000,509000000,-244000000,0,-244000000,-5000000,0,-5000000,-182000000,282000000,100000000,0,-16000000,-165000000,9000000,-680000000,-671000000,0,2000000,-86000000,-37000000,-792000000,2000000,-446000000,-244000000,0,0,0,2000000,496000000,265000000,0.2246,249375000,5198000000,851000000,0.1988,0.6051,0.3586,0.4213,0.1328,0.2085,0.4205,0.1417,0.1077,0.0902,0.0725,0.0757,3.0517,0.3276,0.6552,0.2147,12.2893,1.7415,1.3237,1.1095,0.9304,18.2514,2.988,26295695190,27922695190,8.1385,5.0588,30.8997,1.8433,20.2742,21.4483,8.6421,5.3718,32.8116,1.9574,21.5286,22.7754,0.448,0.8105,1.8181,3.0978,5.7234,0.1189,0.2191,-0.0871,-0.1454,-0.0041,-0.0009,0.2026,-0.3195,-0.1192,-0.5,0.0,-0.0237,-0.0129,-0.0173,0.0038,0.0194,-0.0219,0.0068,0.0223,1.7446,0.3426,-4.6966,-6752000.0,2290000000,277293000,0.305,2014-02-20,94.83,0,0.38588282710871,0.097211665182766,0.1090741842553,0.096778781060562,0.057560390480625,0.20403482636303,0.089461510365285,3.4051844651911,0.34803362715832,1.189498702995,0.086751866726477,4,FY2013.FQ4
2014-03-31,3636000000,2091000000,1545000000,900000000,120000000,0,119000000,1139000000,406000000,12000000,-47000000,-35000000,1000000,372000000,-89000000,283000000,1018000000,-39000000,0,1262000000,0,1262000000,4.53,4.48,278200000,281400000,119000000,2559000000,480000000,3016000000,1929000000,904000000,8888000000,380000000,7420000000,-4696000000,2724000000,1326000000,2969000000,830000000,17117000000,0,0,3712000000,19000000,0,0,0,835000000,4566000000,3373000000,0,1724000000,281000000,1084000000,11028000000,484000000,0,13934000000,-1230000000,989000000,-8185000000,97000000,0,6089000000,17117000000,8229000000,6462000000,283000000,119000000,-363000000,-178000000,0,161000000,-380000000,-1000000,18000000,124000000,163000000,-103000000,0,-103000000,-22000000,1625000000,1603000000,-177000000,269000000,92000000,0,3000000,1595000000,35000000,-200000000,-165000000,0,-3000000,-85000000,-50000000,-303000000,-12000000,1443000000,-103000000,0,0,2000000,-5000000,525000000,60000000,0.2392,873125000,6089000000,1794000000,0.1263,0.369,0.2258,0.282,0.1408,0.2184,0.4249,0.1443,0.1116,0.1023,0.347,0.0165,2.8111,0.3557,0.557,0.1981,12.9211,1.8656,1.4427,1.3219,0.2132,21.6382,6.3752,26747779600,27081779600,12.8409,4.3928,14.9095,1.8081,17.7255,19.7109,13.0013,4.4476,15.0957,1.8307,17.9468,19.957,0.1698,0.2399,0.3427,0.4,0.5435,-0.4763,-0.45,-0.0473,0.2662,0.1068,0.1132,0.2078,2.8314,-0.6349,1.3947,0.0,-0.0027,-0.0056,0.1642,0.0164,0.0453,-0.18,0.0068,-0.1103,1.9465,0.068,0.7817,-773000.0,833000000,276520000,0.305,2014-04-24,96.73,0,0.38588282710871,0.097211665182766,0.1090741842553,0.096778781060562,0.057560390480625,0.20403482636303,0.089461510365285,3.4051844651911,0.34803362715832,1.189498702995,0.086751866726477,1,FY2014.FQ1
2014-06-30,4082000000,2306000000,1776000000,985000000,126000000,0,115000000,1226000000,550000000,13000000,-48000000,-35000000,9000000,524000000,-125000000,399000000,-7000000,-6000000,0,386000000,0,386000000,1.39,1.38,277200000,280200000,115000000,1986000000,927000000,3184000000,1964000000,974000000,9035000000,381000000,7522000000,-4745000000,2777000000,1304000000,2978000000,825000000,17300000000,0,0,3691000000,425000000,0,0,0,846000000,4962000000,2958000000,0,1747000000,271000000,1041000000,10979000000,484000000,0,14227000000,-1181000000,983000000,-8281000000,89000000,0,6321000000,17300000000,8265000000,6017000000,399000000,115000000,-168000000,-25000000,0,31000000,-162000000,28000000,20000000,-162000000,238000000,-129000000,0,-129000000,-2000000,0,-2000000,-706000000,259000000,-447000000,0,5000000,-573000000,6000000,-100000000,-94000000,0,1000000,-92000000,-58000000,-243000000,5000000,-573000000,-129000000,0,0,3000000,-2000000,665000000,109000000,0.2385,343750000,6321000000,2039000000,0.1236,0.3429,0.2197,0.287,0.1425,0.2155,0.435,0.1629,0.1347,0.1283,0.0945,0.0267,2.7369,0.3653,0.5352,0.1955,14.5681,2.3733,1.9628,1.87,0.389,22.5588,7.2769,28967298520,29012298520,13.6124,4.5827,14.2066,1.9321,25.8405,19.8542,13.6335,4.5898,14.2286,1.9351,25.8807,19.885,0.0512,0.0962,0.1525,0.2008,0.2417,0.1319,0.1744,-0.0337,0.5977,0.053,0.0768,0.1924,-0.5917,-0.5,-0.7806,0.0983,-0.003,0.0862,0.0709,0.0186,0.0625,-0.1412,0.0162,-0.0968,1.8208,0.2427,1.9172,-851000.0,1397000000,275669000,0.335,2014-07-23,105.08,0,0.38588282710871,0.097211665182766,0.1090741842553,0.096778781060562,0.057560390480625,0.20403482636303,0.089461510365285,3.4051844651911,0.34803362715832,1.189498702995,0.086751866726477,2,FY2014.FQ2
2014-09-30,3935000000,2229000000,1706000000,941000000,120000000,0,119000000,1180000000,526000000,13000000,-47000000,-34000000,7000000,499000000,-116000000,383000000,-6000000,-6000000,0,371000000,0,371000000,1.34,1.33,276400000,279400000,119000000,2468000000,570000000,2968000000,1905000000,987000000,8898000000,449000000,7183000000,-4463000000,2720000000,1274000000,2898000000,848000000,17087000000,0,0,3687000000,394000000,0,0,0,815000000,4896000000,2954000000,0,1725000000,241000000,1066000000,10882000000,484000000,0,14506000000,-1447000000,1001000000,-8423000000,84000000,0,6205000000,17087000000,8189000000,5986000000,383000000,119000000,115000000,-2000000,0,142000000,255000000,-86000000,15000000,-50000000,636000000,-126000000,0,-126000000,-90000000,0,-90000000,-98000000,469000000,371000000,0,43000000,198000000,11000000,-150000000,-139000000,0,-37000000,-92000000,-2000000,-270000000,-82000000,482000000,-126000000,0,0,-2000000,-35000000,645000000,510000000,0.2324,329375000,6205000000,2033000000,0.1322,0.3629,0.2339,0.3035,0.1466,0.22,0.4335,0.1639,0.1336,0.1268,0.0942,0.1296,2.7537,0.3631,0.5395,0.1959,14.0837,2.3085,1.8826,1.7859,1.8253,22.2083,7.2763,26999613900,26915613900,11.8784,4.3512,13.2806,1.7817,28.6012,15.78,11.8414,4.3377,13.2393,1.7762,28.5123,15.7309,0.0426,0.0576,0.1006,0.112,1.0202,0.6415,0.7051,-0.0358,0.58,0.0122,0.0269,0.132,-0.1928,-0.2475,-0.2576,0.0,-0.0043,0.0167,0.4196,0.0142,0.0584,0.0,0.0162,0.0,1.8174,0.2518,0.283,-1199000.0,880000000,274470000,0.335,2014-10-24,98.37,0,0.38588282710871,0.097211665182766,0.1090741842553,0.096778781060562,0.057560390480625,0.20403482636303,0.089461510365285,3.4051844651911,0.34803362715832,1.189498702995,0.086751866726477,3,FY2014.FQ3
2014-12-31,3138000000,1722000000,1416000000,870000000,117000000,0,68000000,1055000000,361000000,12000000,-362000000,-350000000,-60000000,-49000000,93000000,44000000,45000000,-6000000,0,83000000,0,83000000,0.3,0.3,274200000,277800000,97000000,686000000,497000000,2815000000,1825000000,620000000,6443000000,443000000,7470000000,-4378000000,3092000000,2411000000,3801000000,1345000000,17535000000,2183000000,61000000,1209000000,481000000,0,0,0,941000000,4875000000,3533000000,0,2127000000,666000000,1069000000,12270000000,484000000,0,14498000000,-2116000000,1028000000,-8714000000,85000000,0,5265000000,17535000000,11092000000,7395000000,44000000,97000000,300000000,106000000,0,-300000000,106000000,-28000000,18000000,254000000,491000000,-206000000,0,-206000000,-1999000000,0,-1999000000,-268000000,387000000,119000000,0,9000000,-2077000000,5000000,-300000000,-295000000,0,331000000,-92000000,-97000000,-153000000,-43000000,-1782000000,-206000000,0,0,2095000000,-1764000000,458000000,285000000,0.0,257500000,5265000000,-947000000,0.1214,0.3665,0.2212,0.2652,0.1432,0.2402,0.4512,0.1459,0.115,-0.0156,0.0264,0.0908,3.3304,0.3002,0.7623,0.2289,11.2958,1.6486,1.2994,-0.1763,1.0259,18.9524,-3.4089,31433714700,33783714700,14.9541,5.9703,-33.1929,2.1251,32.6075,23.3534,16.0721,6.4166,-35.6744,2.284,35.0453,25.0993,-0.1034,-0.038,-0.0766,-0.0424,-1.155,-0.6732,-0.6629,-0.0245,-0.3853,0.0751,0.1054,0.0128,-0.0353,0.1557,0.0754,0.0,-0.0091,-0.0116,-0.1272,0.0169,0.0366,-0.0236,0.0127,0.0119,1.3216,1.1166,-1.1752,-2505000.0,3328000000,271965000,0.335,2015-02-19,115.58,0,0.38588282710871,0.097211665182766,0.1090741842553,0.096778781060562,0.057560390480625,0.20403482636303,0.089461510365285,3.4051844651911,0.34803362715832,1.189498702995,0.086751866726477,4,FY2014.FQ4
2015-03-31,3662000000,2065000000,1597000000,914000000,119000000,0,120000000,1153000000,444000000,11000000,-29000000,-18000000,4000000,430000000,-104000000,326000000,1000000,-5000000,0,322000000,0,322000000,1.18,1.17,273200000,275600000,120000000,735000000,435000000,2961000000,1881000000,1072000000,7084000000,449000000,7240000000,-4275000000,2965000000,2277000000,3541000000,1052000000,17368000000,0,0,3329000000,621000000,0,0,0,823000000,4773000000,4023000000,0,1781000000,624000000,1009000000,12210000000,484000000,0,14728000000,-2309000000,1073000000,-8898000000,80000000,0,5158000000,17368000000,10284000000,7437000000,326000000,120000000,-327000000,-136000000,0,-95000000,-558000000,12000000,15000000,-344000000,-429000000,-72000000,0,-72000000,-9000000,47000000,38000000,-34000000,89000000,55000000,0,14000000,35000000,44000000,-200000000,-156000000,0,744000000,-91000000,-39000000,458000000,-15000000,49000000,-72000000,0,0,1242000000,-498000000,564000000,-501000000,0.2418,281875000,5158000000,-660000000,0.0665,0.2229,0.1207,0.1303,0.1427,0.2625,0.4361,0.154,0.1212,0.1174,0.0879,-0.1368,3.3671,0.2969,0.9003,0.2673,13.2873,2.0464,1.611,1.5602,-1.8178,18.7155,-2.3947,30656750040,33509750040,26.3827,5.9435,-46.4496,2.069,76.0713,21.8352,28.8379,6.4966,-50.7723,2.2615,83.1507,23.8673,0.0071,0.0336,0.0742,0.0935,0.1559,-0.7448,-0.7391,-0.0206,-0.7127,0.0884,0.0146,-0.1528,-3.6319,0.3009,-9.35,0.0,-0.0004,0.0072,0.0071,0.0107,0.0224,0.0,0.0127,0.0,1.4841,0.2863,37.1182,-113000.0,3909000000,271852000,0.335,2015-04-27,112.77,0,0.38588282710871,0.097211665182766,0.1090741842553,0.096778781060562,0.057560390480625,0.20403482636303,0.089461510365285,3.4051844651911,0.34803362715832,1.189498702995,0.086751866726477,1,FY2015.FQ1
2015-06-30,4100000000,2283000000,1817000000,954000000,123000000,0,125000000,1202000000,615000000,10000000,-34000000,-24000000,-139000000,452000000,-110000000,342000000,0,-5000000,0,337000000,0,337000000,1.24,1.23,272500000,274700000,125000000,707000000,475000000,3286000000,1861000000,1045000000,7374000000,459000000,7319000000,-4402000000,2917000000,2260000000,3621000000,965000000,17596000000,0,0,3590000000,293000000,0,0,0,942000000,4825000000,4222000000,0,1798000000,501000000,994000000,12340000000,969000000,0,14966000000,-2332000000,612000000,-9044000000,85000000,0,5256000000,17596000000,10222000000,7515000000,342000000,125000000,-264000000,56000000,0,194000000,-14000000,-58000000,25000000,195000000,615000000,-90000000,0,-90000000,-17000000,0,-17000000,-97000000,56000000,-41000000,0,5000000,-143000000,6000000,-151000000,-145000000,0,-272000000,-98000000,15000000,-500000000,0,-28000000,-90000000,0,0,65000000,-337000000,740000000,525000000,0.2433,387500000,5256000000,-625000000,0.0636,0.2137,0.1127,0.1216,0.148,0.2669,0.4431,0.1804,0.15,0.1102,0.0821,0.128,3.3477,0.2987,0.859,0.2565,14.9253,2.6938,2.2388,1.6454,1.9111,19.1336,-2.2752,31057113120,34097113120,27.9039,5.9088,-49.6913,2.0935,37.9207,23.3161,30.6353,6.4872,-54.5553,2.2984,41.6326,25.5984,0.0044,0.023,0.1127,0.1181,-0.1374,-0.1269,-0.1086,-0.0196,-0.644,0.0504,0.0171,-0.1684,1.584,0.3023,3.8165,0.0746,-0.0041,0.0542,0.0535,0.0103,0.0197,-0.0009,0.0201,-0.0193,1.5282,0.2926,5.21,-1131000.0,3808000000,270721000,0.36,2015-07-27,114.72,0,0.38588282710871,0.097211665182766,0.1090741842553,0.096778781060562,0.057560390480625,0.20403482636303,0.089461510365285,3.4051844651911,0.34803362715832,1.189498702995,0.086751866726477,2,FY2015.FQ2
2015-09-30,3725000000,2049000000,1676000000,875000000,117000000,0,120000000,1112000000,564000000,10000000,-31000000,-21000000,11000000,554000000,-133000000,421000000,18000000,-6000000,0,433000000,0,433000000,1.6,1.59,271100000,273100000,107000000,1015000000,399000000,3062000000,1841000000,975000000,7292000000,453000000,7352000000,-4433000000,2919000000,2224000000,3643000000,1043000000,17574000000,0,0,3611000000,302000000,0,0,0,857000000,4770000000,4250000000,0,1778000000,506000000,1074000000,12378000000,969000000,0,15302000000,-2592000000,624000000,-9192000000,85000000,0,5196000000,17574000000,10282000000,7608000000,392000000,107000000,178000000,-9000000,0,48000000,217000000,4000000,2000000,78000000,800000000,-100000000,0,-100000000,-222000000,0,-222000000,0,63000000,63000000,0,16000000,-243000000,1000000,-150000000,-149000000,0,39000000,-98000000,-18000000,-226000000,-23000000,308000000,-100000000,0,0,40000000,-1000000,671000000,700000000,0.24,366250000,5196000000,-671000000,0.0668,0.2248,0.1193,0.1307,0.1516,0.2751,0.4499,0.1801,0.1514,0.1487,0.1162,0.1879,3.3822,0.2956,0.876,0.259,13.6396,2.4569,2.0651,2.0285,2.5631,19.0259,-2.4569,23612198610,26448198610,20.0954,4.5443,-35.1895,1.6145,23.4015,17.0239,22.5091,5.0901,-39.416,1.8084,26.2122,19.0686,-0.0533,-0.0175,0.0403,0.0722,0.1102,0.1671,0.1954,-0.0225,-0.5887,0.0731,0.0285,-0.1626,0.2578,0.2063,0.3725,0.0,-0.0053,0.0182,-0.1508,0.0134,0.003,0.0,0.0201,0.0,1.5287,0.2264,-1.3323,-1452000.0,3537000000,269269000,0.36,2015-10-26,87.69,0,0.38588282710871,0.097211665182766,0.1090741842553,0.096778781060562,0.057560390480625,0.20403482636303,0.089461510365285,3.4051844651911,0.34803362715832,1.189498702995,0.086751866726477,3,FY2015.FQ3
2015-12-31,3027000000,1577000000,1450000000,869000000,112000000,0,79000000,1060000000,390000000,8000000,-31000000,-23000000,-15000000,352000000,-80000000,272000000,46000000,-4000000,0,314000000,0,314000000,1.17,1.16,269000000,271200000,94000000,1311000000,144000000,2709000000,1659000000,889000000,6712000000,367000000,6749000000,-3927000000,2822000000,2178000000,3669000000,1328000000,17076000000,2118000000,106000000,1064000000,281000000,0,0,0,1126000000,4695000000,4026000000,0,1710000000,460000000,1116000000,12007000000,969000000,0,15521000000,-2702000000,635000000,-9440000000,86000000,0,5069000000,17076000000,10364000000,7312000000,272000000,94000000,288000000,126000000,0,-93000000,321000000,42000000,12000000,168000000,909000000,-168000000,0,-168000000,-72000000,0,-72000000,0,250000000,250000000,0,-54000000,-44000000,2000000,-250000000,-248000000,0,-137000000,-96000000,-63000000,-544000000,-25000000,296000000,-168000000,0,0,0,-137000000,484000000,741000000,0.2272,275000000,5069000000,-778000000,0.0811,0.2739,0.1457,0.1657,0.1562,0.2864,0.479,0.1598,0.1288,0.1162,0.1037,0.2447,3.3687,0.2968,0.8496,0.2522,11.1615,1.7846,1.438,1.2979,2.7323,18.691,-2.8687,26372686320,28943686320,18.7572,5.2027,-33.898,1.817,18.0018,14.7498,20.5858,5.7099,-37.2026,1.9941,19.7567,16.1877,-0.0353,0.024,0.0567,0.0803,8.1836,2.7831,2.8666,-0.0237,0.911,-0.0873,-0.0261,-0.0372,0.8513,0.1844,1.6,0.0,-0.0088,-0.0245,-0.0012,0.0061,-0.0044,0.0407,0.0167,0.0454,1.4296,0.3103,-146.0856,-2393000.0,2996000000,266876000,0.36,2016-02-18,98.82,0,0.38588282710871,0.097211665182766,0.1090741842553,0.096778781060562,0.057560390480625,0.20403482636303,0.089461510365285,3.4051844651911,0.34803362715832,1.189498702995,0.086751866726477,4,FY2015.FQ4
2016-03-31,3411000000,1817000000,1594000000,897000000,114000000,0,109000000,1120000000,474000000,7000000,-31000000,-24000000,-6000000,444000000,-109000000,335000000,19000000,-7000000,0,347000000,0,347000000,1.3,1.29,266923000,268992000,115000000,909000000,121000000,3106000000,1863000000,719000000,6718000000,370000000,7595000000,-4557000000,3038000000,2170000000,3743000000,1276000000,17315000000,0,0,3616000000,38000000,0,0,0,902000000,4556000000,4226000000,0,1699000000,479000000,1107000000,12067000000,969000000,0,15770000000,-2643000000,648000000,-9583000000,87000000,0,5248000000,17315000000,10597000000,7511000000,344000000,115000000,-273000000,-120000000,0,-39000000,-432000000,-4000000,10000000,46000000,79000000,-70000000,0,-70000000,-6000000,0,-6000000,-36000000,50000000,14000000,0,-1000000,-63000000,14000000,-150000000,-136000000,0,-165000000,-96000000,-32000000,-429000000,11000000,-402000000,-70000000,0,0,86000000,-251000000,589000000,9000000,0.2454,308125000,5248000000,-665000000,0.0832,0.2774,0.1501,0.1699,0.1604,0.2982,0.4673,0.1726,0.1389,0.1301,0.1017,0.0026,3.2993,0.303,0.8125,0.2462,12.6806,2.1896,1.7621,1.6506,0.0334,19.5098,-2.4721,29663363870,32859363870,20.7291,5.6523,-44.6065,2.0797,15.0194,16.4613,22.9625,6.2613,-49.4125,2.3038,16.6376,18.2349,-0.0685,-0.0018,0.0443,0.0675,0.0325,0.0776,0.1025,-0.0239,0.2367,0.0246,-0.003,0.0174,1.1841,0.0277,1.0179,0.0,-0.003,-0.01,0.0515,0.0039,-0.0043,-0.3517,0.0167,-0.2054,1.4745,0.279,4.0174,-812999.99999997,3355000000,266063000,0.36,2016-04-21,111.49,0,0.38588282710871,0.097211665182766,0.1090741842553,0.096778781060562,0.057560390480625,0.20403482636303,0.089461510365285,3.4051844651911,0.34803362715832,1.189498702995,0.086751866726477,1,FY2016.FQ1
2016-06-30,3782000000,1988000000,1794000000,930000000,115000000,0,109000000,1154000000,640000000,7000000,-31000000,-24000000,14000000,630000000,-285000000,345000000,31000000,-6000000,0,370000000,0,370000000,1.38,1.37,268116000,270073000,103000000,1605000000,64000000,3108000000,1803000000,527000000,7107000000,322000000,7304000000,-4354000000,2950000000,2073000000,3602000000,1194000000,17248000000,0,0,3577000000,686000000,0,0,0,112000000,4375000000,4426000000,0,1631000000,546000000,837000000,11815000000,969000000,0,16034000000,-2749000000,668000000,-9576000000,87000000,0,5433000000,17248000000,10141000000,7440000000,336000000,103000000,-89000000,16000000,0,107000000,34000000,204000000,16000000,-773000000,-80000000,-79000000,0,-79000000,-4000000,0,-4000000,0,61000000,61000000,0,32000000,10000000,9000000,0,9000000,0,904000000,-107000000,-12000000,794000000,-28000000,696000000,-79000000,0,0,902000000,2000000,743000000,-159000000,0.4523,420000000,5433000000,-242000000,0.0847,0.2741,0.1447,0.1652,0.1569,0.28,0.4743,0.1964,0.1692,0.1665,0.0978,-0.042,3.1746,0.3149,0.9409,0.2963,14.0036,2.7511,2.3697,2.3327,-0.5887,20.1167,-0.896,27733270300,30490270300,18.9434,5.1045,-114.6002,1.9887,21.482,14.0067,20.8266,5.612,-125.9928,2.1864,23.6175,15.3991,-0.0775,-0.0126,0.004,0.0406,0.3938,0.0979,0.1138,-0.0168,1.2701,0.0113,-0.0197,0.0336,-1.13,0.1222,-1.3028,0.1111,0.0008,0.0077,0.044,0.0084,0.0044,0.0,0.0274,0.0,1.6244,0.2919,4.2976,218999.99999997,3507000000,266282000,0.4,2016-07-22,104.15,0,0.38588282710871,0.097211665182766,0.1090741842553,0.096778781060562,0.057560390480625,0.20403482636303,0.089461510365285,3.4051844651911,0.34803362715832,1.189498702995,0.086751866726477,2,FY2016.FQ2
2016-09-30,3660000000,1978000000,1682000000,1861000000,115000000,0,113000000,2089000000,-407000000,6000000,-34000000,-28000000,9000000,-426000000,220000000,-206000000,27000000,-5000000,0,-184000000,0,-184000000,-0.69,-0.69,266667000,266667000,113000000,929000000,46000000,2962000000,1676000000,804000000,6417000000,328000000,6784000000,-3921000000,2863000000,2073000000,3701000000,1108000000,16490000000,0,0,3567000000,652000000,0,0,0,241000000,4460000000,3752000000,0,1812000000,521000000,824000000,11369000000,969000000,0,15744000000,-2541000000,683000000,-9824000000,90000000,0,5121000000,16490000000,10073000000,6909000000,-206000000,113000000,106000000,61000000,0,29000000,196000000,-258000000,11000000,921000000,777000000,-90000000,0,-90000000,-311000000,0,-311000000,0,18000000,18000000,0,-9000000,-392000000,6000000,-250000000,-244000000,0,-695000000,-106000000,-12000000,-1057000000,-4000000,-676000000,-90000000,0,0,0,-695000000,-294000000,687000000,0.0,-236875000,5121000000,-653000000,0.0502,0.1605,0.0836,0.0956,0.0836,0.1483,0.4595,-0.0803,-0.1112,-0.1163,-0.0502,0.1877,3.22,0.3105,0.8599,0.267,13.7249,-1.1024,-1.5262,-1.5974,2.5762,19.2037,-2.4487,27286523200,30063523200,32.2154,5.3283,-41.7864,1.9658,21.3509,27.2865,35.4941,5.8706,-46.039,2.1659,23.5238,30.0635,-0.0174,0.0035,-1.4381,-1.7216,-1.7689,-1.4249,-1.4339,-0.0235,-0.0847,-0.0191,-0.0616,-0.0144,-0.0287,0.1,-0.0185,0.0,-0.0085,0.0006,0.0,-0.0037,-0.0171,0.276,0.0274,0.169,1.4387,-0.5797,0.0,-2287000.0,3475000000,263995000,0.4,2016-10-21,103.36,0,0.38588282710871,0.097211665182766,0.1090741842553,0.096778781060562,0.057560390480625,0.20403482636303,0.089461510365285,3.4051844651911,0.34803362715832,1.189498702995,0.086751866726477,3,FY2016.FQ3
2016-12-30,3417000000,1910000000,1507000000,868000000,115000000,0,109000000,1092000000,415000000,6000000,-29000000,-23000000,-261000000,131000000,-40000000,91000000,253000000,-4000000,0,340000000,0,340000000,1.3,1.29,261538000,263566000,109000000,1820000000,43000000,2654000000,1514000000,543000000,6574000000,179000000,6005000000,-3397000000,2608000000,1983000000,3572000000,855000000,15771000000,2142000000,94000000,1100000000,629000000,0,0,0,288000000,4253000000,3787000000,0,1464000000,417000000,935000000,10856000000,969000000,0,15980000000,-2356000000,707000000,-10472000000,87000000,0,4915000000,15771000000,9197000000,6603000000,91000000,109000000,188000000,99000000,0,-228000000,59000000,229000000,8000000,79000000,575000000,-141000000,0,-141000000,-28000000,0,-28000000,0,0,0,0,1050000000,881000000,2000000,-650000000,-648000000,0,204000000,-105000000,31000000,-518000000,-47000000,891000000,-141000000,0,0,330000000,-126000000,524000000,434000000,0.3053,418750000,4915000000,-640000000,0.0541,0.1739,0.0917,0.1072,0.0903,0.1662,0.441,0.1533,0.1214,0.0383,0.0995,0.127,3.2087,0.3116,0.8984,0.28,12.9644,1.9881,1.5745,0.497,1.6466,18.648,-2.4282,24384590800,26308590800,27.9319,4.9612,-38.1009,1.7088,25.1128,31.3024,30.1358,5.3527,-41.1071,1.8436,27.0943,33.7722,0.1288,0.0393,0.0826,0.0641,-0.6278,0.0828,0.112,-0.0281,0.3882,-0.0758,-0.0764,-0.0303,-0.3674,0.1607,-0.4143,0.0,-0.0252,-0.0176,-0.0067,-0.0092,-0.0248,0.1481,0.0178,0.0922,1.5457,0.31,-41.5565,-6665000.0,2596000000,257330000,0.4,2018-06-28,94.76,0,0.38588282710871,0.097211665182766,0.1090741842553,0.096778781060562,0.057560390480625,0.20403482636303,0.089461510365285,3.4051844651911,0.34803362715832,1.189498702995,0.086751866726477,4,FY2016.FQ4
2017-03-31,3486000000,1905000000,1581000000,904000000,110000000,0,110000000,1124000000,457000000,4000000,-25000000,-21000000,10000000,446000000,-110000000,336000000,6000000,-5000000,0,337000000,0,337000000,1.31,1.3,257252000,259231000,110000000,1349000000,40000000,3057000000,1727000000,473000000,6646000000,175000000,6775000000,-3969000000,2806000000,2080000000,3720000000,727000000,16154000000,0,0,3573000000,604000000,0,0,0,96000000,4273000000,3817000000,0,1439000000,400000000,939000000,10868000000,969000000,0,16214000000,-2076000000,711000000,-10626000000,94000000,0,5286000000,16154000000,9508000000,6595000000,336000000,110000000,-296000000,-157000000,0,-28000000,-481000000,6000000,9000000,29000000,9000000,-63000000,0,-63000000,-61000000,0,-61000000,-34000000,19000000,-15000000,0,1000000,-138000000,9000000,-163000000,-154000000,0,-39000000,-103000000,-76000000,-372000000,30000000,-471000000,-63000000,0,0,0,-39000000,567000000,-54000000,0.2466,288750000,5286000000,-514000000,0.054,0.1691,0.0898,0.1075,0.0897,0.1664,0.4535,0.1626,0.131,0.1279,0.0966,-0.0154,3.0559,0.3272,0.8363,0.2736,13.4474,2.1872,1.7629,1.7204,-0.2083,20.391,-1.9827,26921180760,29349180760,31.1948,5.0929,-52.3758,1.8766,29.6488,34.4701,34.0083,5.5522,-57.0995,2.0459,32.3228,37.5789,0.0219,-0.0081,-0.0373,-0.0358,0.0045,-0.0288,0.0077,-0.0362,0.484,-0.0763,-0.067,0.0072,-0.886,0.1,-7.0,0.0,-0.0044,-0.012,-0.0022,-0.0055,-0.0159,0.0,0.0178,-0.3467,1.5553,0.3076,-136.8876,-1133000.0,3072000000,256197000,0.4,2017-04-24,105.08,0,0.38588282710871,0.097211665182766,0.1090741842553,0.096778781060562,0.057560390480625,0.20403482636303,0.089461510365285,3.4051844651911,0.34803362715832,1.189498702995,0.086751866726477,1,FY2017.FQ1
2017-06-30,3804000000,2083000000,1721000000,876000000,112000000,0,113000000,1101000000,620000000,4000000,-26000000,-22000000,61000000,659000000,-157000000,502000000,-1000000,-5000000,0,496000000,0,496000000,1.93,1.92,257100000,259000000,113000000,1569000000,48000000,3191000000,1766000000,571000000,7145000000,256000000,6339000000,-3629000000,2710000000,2118000000,3845000000,903000000,16977000000,0,0,3653000000,619000000,0,0,0,169000000,4441000000,3998000000,0,1503000000,390000000,910000000,11242000000,969000000,0,16613000000,-2059000000,723000000,-10616000000,105000000,0,5735000000,16977000000,9832000000,6801000000,502000000,113000000,-110000000,-28000000,0,-16000000,-154000000,-46000000,8000000,14000000,437000000,-72000000,0,-72000000,-101000000,0,-101000000,0,0,0,0,50000000,-123000000,11000000,0,11000000,0,-30000000,-102000000,3000000,-118000000,24000000,220000000,-72000000,0,0,0,-30000000,733000000,365000000,0.2382,386250000,5735000000,-228000000,0.0597,0.1794,0.0976,0.114,0.0846,0.1563,0.4524,0.1926,0.1629,0.1732,0.1303,0.0959,2.9602,0.3378,0.805,0.2719,14.6872,2.8301,2.3938,2.5444,1.4092,22.1428,-0.8803,28202540800,30583540800,28.5162,4.9176,-123.6953,1.963,19.6945,34.8179,30.9237,5.3327,-134.1383,2.1287,21.3572,37.7574,0.0058,-0.0406,-0.0134,-0.0312,0.046,0.3405,0.4014,-0.041,-0.0224,-0.0813,-0.0157,0.0555,6.4625,0.0886,3.2955,0.0,0.0011,0.0194,0.2039,-0.0032,0.0085,0.025,0.0178,-0.0115,1.6088,0.2083,1.398,283000.00000003,3048000000,256480000,0.4,2017-07-21,109.96,0,0.38588282710871,0.097211665182766,0.1090741842553,0.096778781060562,0.057560390480625,0.20403482636303,0.089461510365285,3.4051844651911,0.34803362715832,1.189498702995,0.086751866726477,2,FY2017.FQ2
2017-09-29,3776000000,2104000000,1672000000,894000000,114000000,0,117000000,1125000000,547000000,5000000,-27000000,-22000000,-2000000,523000000,-124000000,399000000,217000000,-6000000,0,610000000,0,610000000,2.38,2.36,256400000,258200000,117000000,2287000000,41000000,3155000000,1805000000,350000000,7638000000,261000000,6467000000,-3737000000,2730000000,2099000000,3881000000,1006000000,17615000000,0,0,3895000000,616000000,0,0,0,107000000,4618000000,4089000000,0,1525000000,445000000,928000000,11605000000,969000000,0,17106000000,-2063000000,745000000,-10855000000,108000000,0,6010000000,17615000000,9977000000,6987000000,399000000,117000000,56000000,-15000000,0,16000000,57000000,-13000000,9000000,17000000,586000000,-72000000,0,-72000000,-7000000,0,-7000000,0,18000000,18000000,0,538000000,477000000,25000000,-250000000,-225000000,0,-21000000,-116000000,1000000,-361000000,16000000,718000000,-72000000,0,0,0,-21000000,664000000,514000000,0.237,476875000,6010000000,30000000,0.103,0.3036,0.1675,0.2046,0.1523,0.275,0.4427,0.1758,0.1448,0.1385,0.1615,0.1361,2.9309,0.3411,0.7828,0.2671,14.6243,2.5716,2.1185,2.0255,1.9907,23.2765,0.1161,27699712600,29460712600,15.5354,4.6089,923.3237,1.9125,22.0013,15.7474,16.5231,4.9019,982.0237,2.0341,23.4,16.7485,0.0316,-0.0059,3.2585,2.3439,2.2276,4.3152,4.4202,-0.0317,1.4617,-0.0464,0.0682,0.1735,-0.2458,0.2,-0.2518,0.125,-0.0078,0.003,0.0726,0.0014,0.0154,0.0,0.0299,0.0,1.6539,0.1906,2.1373,-2004000.0,2418000000,254476000,0.45,2017-10-20,108.85,0,0.38588282710871,0.097211665182766,0.1090741842553,0.096778781060562,0.057560390480625,0.20403482636303,0.089461510365285,3.4051844651911,0.34803362715832,1.189498702995,0.086751866726477,3,FY2017.FQ3
2017-12-29,3682000000,2119000000,1563000000,946000000,116000000,0,120000000,1182000000,381000000,7000000,-27000000,-20000000,16000000,377000000,-224000000,153000000,3000000,-5000000,0,151000000,0,151000000,0.6,0.59,251667000,255932000,120000000,1436000000,55000000,2903000000,1730000000,353000000,6477000000,268000000,6594000000,-3770000000,2824000000,2045000000,3942000000,982000000,16538000000,2582000000,100000000,1021000000,12000000,0,0,0,180000000,3895000000,4134000000,0,1428000000,442000000,967000000,10866000000,969000000,0,17140000000,-2057000000,756000000,-11251000000,115000000,0,5672000000,16538000000,10061000000,6971000000,153000000,120000000,274000000,84000000,0,-126000000,232000000,91000000,9000000,-69000000,536000000,-153000000,0,-153000000,-156000000,0,-156000000,0,0,0,0,26000000,-283000000,7000000,-400000000,-393000000,0,-591000000,-113000000,-6000000,-1103000000,-1000000,-851000000,-153000000,0,0,0,-591000000,501000000,383000000,0.5941,241250000,5672000000,-315000000,0.0933,0.2728,0.1535,0.1871,0.1526,0.2803,0.4244,0.136,0.1034,0.1023,0.041,0.104,2.9157,0.3429,0.7309,0.2506,14.3866,1.9575,1.4886,1.473,1.4964,22.1621,-1.2307,29342146680,31985146680,18.4078,5.1731,-93.1496,1.9895,24.2898,14.6344,20.0659,5.6391,-101.5401,2.1687,26.4777,15.9526,0.0775,0.0371,-0.0438,-0.0819,1.8778,-0.5558,-0.5426,-0.0289,-0.2109,0.0828,0.0486,0.154,-0.0678,-0.0851,-0.1175,0.0,-0.0129,-0.0106,-0.0708,-0.0061,0.0076,-0.031,0.0225,-0.0136,1.6629,0.7627,-2.5988,-3302000.0,2710000000,251174000,0.45,2018-06-28,116.82,0,0.38588282710871,0.097211665182766,0.1090741842553,0.096778781060562,0.057560390480625,0.20403482636303,0.089461510365285,3.4051844651911,0.34803362715832,1.189498702995,0.086751866726477,4,FY2017.FQ4
2018-03-30,3781000000,2181000000,1600000000,906000000,112000000,0,123000000,1141000000,459000000,5000000,-26000000,-21000000,-17000000,421000000,-87000000,334000000,6000000,-6000000,0,334000000,0,334000000,1.34,1.33,249800000,251400000,123000000,1346000000,58000000,3343000000,1963000000,400000000,7110000000,270000000,6749000000,-3887000000,2862000000,2132000000,4100000000,1070000000,17544000000,0,0,3924000000,19000000,0,0,0,87000000,4030000000,5199000000,0,1392000000,471000000,985000000,12077000000,969000000,0,17464000000,-2005000000,761000000,-11843000000,121000000,0,5467000000,17544000000,10434000000,8047000000,334000000,123000000,-373000000,-202000000,0,-92000000,-667000000,-5000000,9000000,-22000000,-228000000,-75000000,0,-75000000,-96000000,0,-96000000,-13000000,0,-13000000,0,6000000,-178000000,9000000,-600000000,-591000000,0,991000000,-112000000,7000000,295000000,21000000,-90000000,-75000000,0,0,992000000,-1000000,582000000,-303000000,0.2066,290000000,5467000000,-765000000,0.0933,0.2856,0.1534,0.1772,0.1532,0.2873,0.4231,0.1539,0.1213,0.1113,0.0883,-0.0801,3.209,0.3116,0.9544,0.2974,15.0397,2.315,1.8257,1.6746,-1.2052,21.7462,-3.0429,27824446800,31619446800,17.4886,5.0895,-36.3718,1.8496,29.014,14.0527,19.8739,5.7836,-41.3326,2.1019,32.9712,15.9694,0.0846,0.012,0.0264,0.0043,-0.056,-0.0089,0.023,-0.0302,-0.0022,0.0199,0.086,0.0342,-26.3333,-0.1904,-4.6111,0.0,-0.0073,0.0014,-0.0176,-0.0001,0.005,0.0,0.0225,0.0,1.7642,0.3383,-9.8822,-1851000.0,3872000000,249323000,0.45,2018-06-28,111.6,0,0.38588282710871,0.097211665182766,0.1090741842553,0.096778781060562,0.057560390480625,0.20403482636303,0.089461510365285,3.4051844651911,0.34803362715832,1.189498702995,0.086751866726477,1,FY2018.FQ1
2018-06-29,4131000000,2379000000,1752000000,945000000,114000000,0,125000000,1184000000,568000000,7000000,-31000000,-24000000,-65000000,479000000,-104000000,375000000,0,-4000000,0,371000000,0,371000000,1.51,1.51,244900000,246400000,125000000,1020000000,63000000,3438000000,1956000000,402000000,6879000000,258000000,6586000000,-3848000000,2738000000,1986000000,3920000000,1013000000,16794000000,0,0,3893000000,22000000,0,0,0,132000000,4047000000,5048000000,0,1362000000,425000000,929000000,11811000000,969000000,0,17725000000,-2275000000,769000000,-12304000000,99000000,0,4983000000,16794000000,9915000000,7764000000,375000000,125000000,-253000000,-68000000,0,125000000,-196000000,-8000000,9000000,54000000,359000000,-43000000,0,-43000000,-2000000,0,-2000000,-4000000,3000000,-1000000,0,7000000,-39000000,1000000,-463000000,-462000000,0,-3000000,-110000000,-25000000,-600000000,-46000000,-326000000,-43000000,0,0,0,-3000000,693000000,316000000,0.2171,356875000,4983000000,-923000000,0.0853,0.2805,0.1398,0.1577,0.1486,0.276,0.4241,0.1677,0.1374,0.1159,0.0898,0.0764,3.3702,0.2967,1.0174,0.3018,16.7654,2.8125,2.3051,1.9439,1.2824,20.2232,-3.7459,25104527140,29069527140,17.1245,5.038,-27.1988,1.6333,27.5873,13.9469,19.8291,5.8337,-31.4946,1.8913,31.9445,16.1497,0.0859,0.018,-0.0545,-0.0838,-0.2731,-0.252,-0.2135,-0.0486,-0.3499,0.0103,-0.0107,-0.1311,-0.1784,0.4027,-0.1342,0.0,-0.0292,0.0315,0.0267,-0.0016,-0.0017,-0.0816,0.0225,-0.0887,1.6997,0.298,6.4089,-7305000.0,4050000000,242018000,0.45,2018-07-20,103.73,0,0.38588282710871,0.097211665182766,0.1090741842553,0.096778781060562,0.057560390480625,0.20403482636303,0.089461510365285,3.4051844651911,0.34803362715832,1.189498702995,0.086751866726477,2,FY2018.FQ2
2018-09-28,3817000000,2253000000,1564000000,867000000,110000000,0,122000000,1099000000,465000000,6000000,-31000000,-25000000,11000000,451000000,-79000000,372000000,10000000,-4000000,0,378000000,0,378000000,1.56,1.55,242200000,243600000,122000000,1103000000,57000000,3217000000,1962000000,402000000,6741000000,266000000,6618000000,-3880000000,2738000000,2004000000,3939000000,1030000000,16718000000,0,0,3806000000,15000000,0,0,0,112000000,3933000000,5023000000,0,1311000000,460000000,913000000,11640000000,969000000,0,17987000000,-2197000000,772000000,-12551000000,98000000,0,5078000000,16718000000,9977000000,7707000000,372000000,122000000,207000000,-15000000,0,-29000000,163000000,8000000,3000000,-132000000,536000000,-108000000,0,-108000000,0,0,0,-6000000,17000000,11000000,0,3000000,-94000000,4000000,-250000000,-246000000,0,-2000000,-116000000,-1000000,-365000000,6000000,83000000,-108000000,0,0,0,-2000000,587000000,428000000,0.1751,298125000,5078000000,-865000000,0.0736,0.2453,0.1211,0.1352,0.1465,0.273,0.4097,0.1537,0.1218,0.1181,0.099,0.1121,3.2922,0.3037,0.9921,0.3013,15.6691,2.4096,1.9088,1.8513,1.7569,20.8456,-3.5509,26178650050,30041650050,21.2144,5.1553,-30.2643,1.6986,31.7702,15.1496,24.3449,5.916,-34.7302,1.9493,36.4583,17.3852,0.0108,-0.0645,-0.1159,-0.1499,-0.1376,-0.3803,-0.3432,-0.0565,-0.5177,0.0029,-0.0509,-0.155,-0.0853,-0.5,-0.1673,0.0666,-0.0088,0.0113,0.0185,-0.0035,-0.0032,0.4713,0.0291,0.211,1.7139,0.3096,11.4481,-2133000.0,3935000000,239885000,0.48,2018-10-19,109.13,0,0.38588282710871,0.097211665182766,0.1090741842553,0.096778781060562,0.057560390480625,0.20403482636303,0.089461510365285,3.4051844651911,0.34803362715832,1.189498702995,0.086751866726477,3,FY2018.FQ3
2018-12-31,3645000000,2188000000,1457000000,855000000,105000000,0,117000000,1077000000,380000000,5000000,-30000000,-25000000,-13000000,342000000,-83000000,259000000,2000000,-3000000,0,258000000,0,258000000,1.08,1.08,238200000,239700000,127000000,902000000,61000000,2845000000,1783000000,370000000,5961000000,251000000,6633000000,-3828000000,2805000000,1972000000,4070000000,956000000,16015000000,2460000000,112000000,971000000,651000000,0,0,0,179000000,4373000000,4365000000,0,1274000000,429000000,842000000,11283000000,969000000,0,18131000000,-2300000000,788000000,-12958000000,102000000,0,4732000000,16015000000,10054000000,6910000000,259000000,127000000,350000000,176000000,0,-232000000,294000000,50000000,16000000,54000000,800000000,-185000000,0,-185000000,-280000000,0,-280000000,-5000000,3000000,-2000000,0,14000000,-453000000,1000000,-408000000,-407000000,0,-3000000,-115000000,-10000000,-535000000,-13000000,-201000000,-185000000,0,0,0,-3000000,507000000,615000000,0.2426,240000000,4732000000,-1310000000,0.0819,0.2733,0.1336,0.1485,0.1492,0.2856,0.3997,0.139,0.1042,0.0938,0.0707,0.1687,3.3844,0.2954,1.06,0.3132,15.2065,2.1151,1.5853,1.4267,2.5657,19.7413,-5.4651,24112070030,27514070030,17.9806,5.0955,-18.4061,1.5683,22.8333,14.2422,20.5175,5.8144,-21.0031,1.7896,26.0549,16.2516,-0.01,-0.0678,0.0119,-0.0026,-0.0928,0.7086,0.8305,-0.0634,-0.3718,-0.0067,-0.0316,-0.1657,0.4925,-0.2091,0.6057,0.0,-0.0167,-0.0036,-0.0235,-0.0073,-0.0137,0.0,0.0183,0.0,1.3631,0.4444,-7.6499,-4024000.0,4114000000,235861000,0.48,2019-02-21,102.23,0,0.38588282710871,0.097211665182766,0.1090741842553,0.096778781060562,0.057560390480625,0.20403482636303,0.089461510365285,3.4051844651911,0.34803362715832,1.189498702995,0.086751866726477,4,FY2018.FQ4
2019-03-29,3624000000,2073000000,1551000000,889000000,105000000,0,118000000,1112000000,439000000,6000000,-31000000,-25000000,5000000,419000000,-102000000,317000000,0,-5000000,0,312000000,0,312000000,1.32,1.31,236700000,238000000,118000000,784000000,55000000,3197000000,1965000000,408000000,6409000000,261000000,7489000000,-3897000000,3592000000,2020000000,4103000000,986000000,17371000000,0,0,3684000000,653000000,168000000,0,0,83000000,4588000000,4626000000,566000000,1269000000,447000000,865000000,12361000000,969000000,0,18330000000,-2224000000,899000000,-13070000000,106000000,0,5010000000,17371000000,10962000000,7773000000,317000000,118000000,-299000000,-152000000,0,-60000000,-511000000,-32000000,9000000,33000000,-66000000,-47000000,0,-47000000,-57000000,0,-57000000,-6000000,16000000,10000000,0,8000000,-86000000,7000000,-175000000,-168000000,0,308000000,-113000000,5000000,32000000,2000000,-118000000,-47000000,0,0,309000000,-1000000,557000000,-113000000,0.2434,275000000,5010000000,-1113000000,0.079,0.2707,0.1267,0.1379,0.1439,0.273,0.4279,0.1536,0.1211,0.1156,0.086,-0.0311,3.4672,0.2884,1.1666,0.3364,15.2268,2.3403,1.8445,1.7605,-0.4747,21.0504,-4.6764,26644092200,30431092200,20.2002,5.3181,-23.9389,1.7509,21.3837,15.7564,23.0713,6.074,-27.3415,1.9998,24.423,17.9959,-0.0415,-0.0306,-0.0429,-0.0435,-0.0047,-0.0658,-0.015,-0.0533,-0.4175,0.255,-0.0098,-0.0835,0.7105,0.3733,0.627,0.0,0.0008,-0.0009,0.0,0.0052,-0.0021,0.0,0.0183,0.0,1.3969,0.3664,0.0,199000.0,4495000000,236060000,0.48,2019-04-19,112.87,0,0.38588282710871,0.097211665182766,0.1090741842553,0.096778781060562,0.057560390480625,0.20403482636303,0.089461510365285,3.4051844651911,0.34803362715832,1.189498702995,0.086751866726477,1,FY2019.FQ1
2019-06-28,4024000000,2288000000,1736000000,934000000,111000000,0,126000000,1171000000,565000000,7000000,-35000000,-28000000,-174000000,363000000,-86000000,277000000,2000000,-7000000,0,272000000,0,272000000,1.15,1.14,236900000,238300000,126000000,963000000,53000000,3332000000,1945000000,414000000,6707000000,251000000,7623000000,-3963000000,3660000000,2081000000,4312000000,944000000,17955000000,0,0,3746000000,654000000,167000000,0,0,139000000,4706000000,4845000000,572000000,1258000000,382000000,1005000000,12768000000,969000000,0,18488000000,-2230000000,913000000,-13061000000,108000000,0,5187000000,17955000000,11248000000,8062000000,277000000,126000000,-132000000,55000000,0,19000000,-58000000,25000000,10000000,168000000,548000000,-86000000,0,-86000000,-304000000,0,-304000000,0,3000000,3000000,0,16000000,-371000000,15000000,0,15000000,0,143000000,-114000000,-44000000,0,2000000,179000000,-86000000,0,0,167000000,-24000000,691000000,462000000,0.2369,354375000,5187000000,-1206000000,0.069,0.2392,0.1092,0.1185,0.1352,0.2494,0.4314,0.1717,0.1404,0.0902,0.0675,0.1148,3.4615,0.2888,1.1704,0.3381,16.8862,2.8997,2.3709,1.5232,1.9387,21.7666,-5.0608,27577756030,31406756030,22.6047,5.3167,-22.8671,1.8251,19.8116,17.5096,25.7432,6.0548,-26.042,2.0785,22.5623,19.9407,-0.0259,-0.0091,-0.0028,-0.0052,-0.2421,-0.2668,-0.245,-0.0328,-0.0558,0.3367,0.0691,0.0409,0.5264,-1.0,0.462,0.0,0.0009,0.0164,-0.0122,0.013,0.0054,0.0062,0.0183,-0.0047,1.4252,0.421,-18.3997,233000.0,4536000000,236293000,0.48,2019-07-19,116.71,0,0.38588282710871,0.097211665182766,0.1090741842553,0.096778781060562,0.057560390480625,0.20403482636303,0.089461510365285,3.4051844651911,0.34803362715832,1.189498702995,0.086751866726477,2,FY2019.FQ2
2019-09-30,3826000000,2181000000,1645000000,887000000,107000000,0,133000000,1127000000,518000000,10000000,-33000000,-23000000,-14000000,481000000,-109000000,372000000,1000000,-6000000,0,367000000,0,367000000,1.55,1.54,237100000,238500000,133000000,1432000000,58000000,3028000000,1860000000,439000000,6817000000,254000000,7568000000,-3964000000,3604000000,2083000000,4335000000,971000000,18064000000,0,0,3636000000,639000000,162000000,0,0,141000000,4578000000,4885000000,588000000,1243000000,455000000,960000000,12709000000,969000000,0,18735000000,-2328000000,925000000,-13054000000,108000000,0,5355000000,18064000000,11247000000,8131000000,372000000,133000000,243000000,48000000,0,13000000,304000000,-19000000,9000000,-10000000,789000000,-91000000,0,-91000000,-203000000,0,-203000000,-2000000,7000000,5000000,0,-2000000,-291000000,10000000,0,10000000,0,118000000,-120000000,1000000,9000000,-38000000,469000000,-91000000,0,0,119000000,-1000000,651000000,698000000,0.2266,326875000,5355000000,-1063000000,0.0671,0.2293,0.1054,0.1176,0.1357,0.2499,0.4299,0.1701,0.1353,0.1257,0.0959,0.1824,3.3732,0.2964,1.1413,0.3383,16.0419,2.7295,2.1719,2.0167,2.9266,22.4528,-4.457,28023230130,31418230130,23.1788,5.233,-26.3623,1.8535,16.8611,17.4599,25.9869,5.867,-29.5561,2.078,18.9038,19.5752,0.0023,0.0517,0.109,0.1139,0.0665,-0.0291,-0.0064,-0.0209,0.2982,0.3162,0.0805,0.0545,0.472,0.1574,0.6308,0.0625,0.0007,0.0093,0.017,0.0112,0.0012,0.0,0.0245,0.5641,1.489,0.3311,13.5658,170000.0,4092000000,236463000,0.51,2019-10-18,118.51,0,0.38588282710871,0.097211665182766,0.1090741842553,0.096778781060562,0.057560390480625,0.20403482636303,0.089461510365285,3.4051844651911,0.34803362715832,1.189498702995,0.086751866726477,3,FY2019.FQ3
2019-12-31,3672000000,2111000000,1561000000,894000000,109000000,0,126000000,1129000000,432000000,9000000,-33000000,-24000000,-10000000,398000000,-95000000,303000000,-3000000,-8000000,0,292000000,0,292000000,1.23,1.22,236900000,238200000,134000000,1216000000,57000000,2756000000,1710000000,431000000,6170000000,258000000,7847000000,-4082000000,3765000000,2131000000,4470000000,914000000,17708000000,2378000000,46000000,987000000,513000000,170000000,0,0,281000000,4375000000,4539000000,622000000,1406000000,452000000,911000000,12305000000,969000000,0,18906000000,-2350000000,950000000,-13191000000,119000000,0,5403000000,17708000000,11538000000,7930000000,303000000,134000000,309000000,194000000,0,-187000000,316000000,21000000,11000000,24000000,809000000,-189000000,0,-189000000,-79000000,0,-79000000,0,2000000,2000000,0,5000000,-261000000,29000000,0,29000000,0,-534000000,-121000000,-173000000,-799000000,35000000,-216000000,-189000000,0,0,100000000,-634000000,566000000,620000000,0.2386,268750000,5403000000,-1198000000,0.0694,0.231,0.1091,0.1235,0.1397,0.2613,0.4251,0.1541,0.1176,0.1083,0.0795,0.1688,3.2774,0.3051,1.0501,0.3204,15.4156,2.3761,1.8136,1.6708,2.6028,22.6826,-5.0293,31460923200,34726923200,25.3104,5.8228,-26.2612,2.0771,18.8727,18.9409,27.9379,6.4273,-28.9874,2.2928,20.8319,20.9072,0.0074,0.0713,0.1163,0.1368,0.1637,0.1317,0.1296,-0.0062,0.3481,0.3422,0.1057,0.1418,0.0112,-0.0216,0.0081,0.0,-0.0033,-0.0035,-0.0443,0.0042,-0.0059,0.0544,0.0245,0.0635,1.4102,0.418,-5.7089,-783000.0,3836000000,235680000,0.51,2020-02-20,133.49,0,0.38588282710871,0.097211665182766,0.1090741842553,0.096778781060562,0.057560390480625,0.20403482636303,0.089461510365285,3.4051844651911,0.34803362715832,1.189498702995,0.086751866726477,4,FY2019.FQ4
2020-03-31,3377000000,1908000000,1469000000,905000000,101000000,0,129000000,1135000000,334000000,9000000,-32000000,-23000000,8000000,319000000,-71000000,248000000,0,-5000000,0,243000000,0,243000000,1.03,1.02,236500000,237700000,129000000,1886000000,50000000,2804000000,1859000000,467000000,7066000000,245000000,7712000000,-4065000000,3647000000,1918000000,4243000000,945000000,18064000000,0,0,3367000000,1456000000,166000000,0,0,206000000,5195000000,4751000000,627000000,1393000000,399000000,862000000,13227000000,969000000,0,19029000000,-3042000000,954000000,-13187000000,114000000,0,4837000000,18064000000,10998000000,8032000000,248000000,129000000,-58000000,-206000000,0,-170000000,-434000000,-4000000,7000000,-105000000,-159000000,-37000000,0,-37000000,-44000000,0,-44000000,-2000000,10000000,8000000,0,14000000,-59000000,5000000,0,5000000,0,1158000000,-120000000,-31000000,1012000000,-124000000,670000000,-37000000,0,0,1171000000,-13000000,463000000,-196000000,0.2225,211250000,4837000000,-1324000000,0.0656,0.2292,0.1021,0.1181,0.1312,0.2399,0.435,0.1371,0.0989,0.0944,0.0719,-0.058,3.7345,0.2677,1.4128,0.3783,14.2069,1.9478,1.4051,1.342,-0.8245,20.3491,-5.57,19723162800,22538162800,16.7999,4.0775,-14.8966,1.3237,12.4514,12.6349,19.1977,4.6595,-17.0227,1.5127,14.2286,14.4382,-0.0681,-0.0528,-0.1687,-0.2391,-0.2386,-0.2211,-0.2213,-0.0012,1.4056,0.0153,0.0398,-0.0345,-1.409,0.2127,-0.7345,0.0,0.001,-0.0111,-0.0804,0.0025,-0.0214,0.0,0.0125,0.0,1.3601,0.5,-2.0878,243000.0,4321000000,235923000,0.51,2020-04-28,83.6,0,0.38588282710871,0.097211665182766,0.1090741842553,0.096778781060562,0.057560390480625,0.20403482636303,0.089461510365285,3.4051844651911,0.34803362715832,1.189498702995,0.086751866726477,1,FY2020.FQ1
2020-06-30,3015000000,1703000000,1312000000,766000000,86000000,0,123000000,975000000,337000000,5000000,-41000000,-36000000,-175000000,126000000,-29000000,97000000,3000000,2000000,0,102000000,0,102000000,0.43,0.43,236600000,237600000,123000000,2252000000,45000000,2673000000,1706000000,401000000,7077000000,251000000,7867000000,-4176000000,3691000000,1916000000,4307000000,928000000,18170000000,0,0,3055000000,1688000000,171000000,0,0,320000000,5234000000,4613000000,669000000,1383000000,397000000,936000000,13232000000,969000000,0,19010000000,-2925000000,962000000,-13184000000,106000000,0,4938000000,18170000000,11093000000,7998000000,97000000,123000000,150000000,177000000,0,-212000000,115000000,-4000000,8000000,142000000,481000000,-55000000,0,-55000000,-1000000,0,-1000000,-1000000,2000000,1000000,0,3000000,-52000000,1000000,0,1000000,0,50000000,-121000000,-15000000,-85000000,22000000,366000000,-55000000,0,0,1359000000,-1309000000,460000000,426000000,0.2301,216875000,4938000000,-1285000000,0.0554,0.2054,0.0843,0.1021,0.1119,0.1957,0.4351,0.1525,0.1117,0.0417,0.0338,0.1412,3.6796,0.2717,1.4115,0.3835,12.6893,1.936,1.4183,0.5303,1.7929,20.7828,-5.4082,25027720620,27343720620,24.928,5.0683,-19.4768,1.8018,16.1677,18.9031,27.2347,5.5374,-21.2791,1.9685,17.6639,20.6523,-0.2507,-0.2442,-0.3342,-0.4035,-0.6528,-0.625,-0.6228,-0.0029,1.3385,0.0084,0.0119,-0.048,-0.1222,0.3604,-0.0779,0.0,0.0002,-0.0197,-0.0311,0.0094,-0.0137,0.0106,0.0125,-0.0107,1.3521,1.186,-8.0054,54000.0,4049000000,235977000,0.51,2020-07-17,106.06,0,0.38588282710871,0.097211665182766,0.1090741842553,0.096778781060562,0.057560390480625,0.20403482636303,0.089461510365285,3.4051844651911,0.34803362715832,1.189498702995,0.086751866726477,2,FY2020.FQ2
